time,pleth_1
22:48.3,65589
22:48.3,65589
22:48.3,65595
22:48.3,65591
22:48.3,65583
22:48.3,65590
22:48.3,65590
22:48.3,65594
22:48.3,65593
22:48.3,65594
22:48.3,65599
22:48.3,65599
22:48.3,65597
22:48.3,65585
22:48.3,65585
22:48.3,65590
22:48.3,65590
22:48.3,65604
22:48.3,65592
22:48.3,65592
22:48.3,65587
22:48.3,65587
22:48.3,65602
22:48.4,65581
22:48.4,65585
22:48.4,65595
22:48.4,65595
22:48.4,65605
22:48.4,65591
22:48.4,65596
22:48.4,65585
22:48.4,65585
22:48.4,65595
22:48.4,65595
22:48.4,65591
22:48.4,65594
22:48.4,65594
22:48.4,65591
22:48.4,65597
22:48.4,65599
22:48.4,65603
22:48.4,65603
22:48.4,65600
22:48.4,65602
22:48.4,65599
22:48.4,65602
22:48.4,65602
22:48.4,65593
22:48.4,65602
22:48.4,65598
22:48.4,65598
22:48.4,65612
22:48.4,65599
22:48.4,65601
22:48.4,65603
22:48.4,65603
22:48.4,65598
22:48.4,65595
22:48.4,65590
22:48.4,65613
22:48.4,65613
22:48.4,65588
22:48.4,65601
22:48.4,65608
22:48.4,65605
22:48.4,65605
22:48.4,65614
22:48.4,65611
22:48.4,65627
22:48.4,65606
22:48.4,65606
22:48.4,65624
22:48.4,65627
22:48.5,65628
22:48.5,65636
22:48.5,65636
22:48.5,65626
22:48.5,65622
22:48.5,65633
22:48.5,65629
22:48.5,65629
22:48.5,65634
22:48.5,65636
22:48.5,65643
22:48.5,65626
22:48.5,65626
22:48.5,65641
22:48.5,65629
22:48.5,65635
22:48.5,65650
22:48.5,65650
22:48.5,65640
22:48.5,65641
22:48.5,65650
22:48.5,65650
22:48.5,65650
22:48.5,65651
22:48.5,65657
22:48.5,65659
22:48.5,65659
22:48.5,65668
22:48.5,65666
22:48.5,65664
22:48.5,65669
22:48.5,65669
22:48.5,65687
22:48.5,65670
22:48.5,65671
22:48.5,65678
22:48.5,65678
22:48.5,65689
22:48.5,65685
22:48.5,65691
22:48.5,65693
22:48.5,65693
22:48.5,65705
22:48.5,65706
22:48.5,65699
22:48.5,65693
22:48.5,65693
22:48.5,65692
22:48.5,65699
22:48.5,65704
22:48.6,65702
22:48.6,65702
22:48.6,65710
22:48.6,65719
22:48.6,65716
22:48.6,65718
22:48.6,65718
22:48.6,65729
22:48.6,65733
22:48.6,65719
22:48.6,65730
22:48.6,65730
22:48.6,65728
22:48.6,65736
22:48.6,65752
22:48.6,65750
22:48.6,65750
22:48.6,65745
22:48.6,65755
22:48.6,65751
22:48.6,65764
22:48.6,65764
22:48.6,65762
22:48.6,65759
22:48.6,65760
22:48.6,65760
22:48.6,65767
22:48.6,65770
22:48.6,65773
22:48.6,65784
22:48.6,65784
22:48.6,65787
22:48.6,65770
22:48.6,65768
22:48.6,65759
22:48.6,65759
22:48.6,65757
22:48.6,65754
22:48.6,65746
22:48.6,65727
22:48.6,65727
22:48.6,65737
22:48.6,65708
22:48.6,65711
22:48.6,65705
22:48.6,65705
22:48.6,65693
22:48.6,65686
22:48.6,65684
22:48.6,65661
22:48.7,65661
22:48.7,65657
22:48.7,65651
22:48.7,65645
22:48.7,65625
22:48.7,65625
22:48.7,65623
22:48.7,65625
22:48.7,65611
22:48.7,65600
22:48.7,65600
22:48.7,65600
22:48.7,65581
22:48.7,65579
22:48.7,65583
22:48.7,65583
22:48.7,65565
22:48.7,65551
22:48.7,65553
22:48.7,65553
22:48.7,65546
22:48.7,65520
22:48.7,65518
22:48.7,65518
22:48.7,65518
22:48.7,65531
22:48.7,65517
22:48.7,65510
22:48.7,65506
22:48.7,65506
22:48.7,65497
22:48.7,65500
22:48.7,65494
22:48.7,65475
22:48.7,65475
22:48.7,65471
22:48.7,65475
22:48.7,65475
22:48.7,65464
22:48.7,65464
22:48.7,65467
22:48.7,65457
22:48.7,65460
22:48.7,65443
22:48.7,65443
22:48.7,65454
22:48.7,65446
22:48.7,65453
22:48.7,65438
22:48.7,65438
22:48.8,65445
22:48.8,65446
22:48.8,65452
22:48.8,65439
22:48.8,65439
22:48.8,65449
22:48.8,65453
22:48.8,65441
22:48.8,65445
22:48.8,65445
22:48.8,65440
22:48.8,65440
22:48.8,65439
22:48.8,65446
22:48.8,65446
22:48.8,65443
22:48.8,65439
22:48.8,65444
22:48.8,65444
22:48.8,65435
22:48.8,65424
22:48.8,65432
22:48.8,65434
22:48.8,65434
22:48.8,65442
22:48.8,65431
22:48.8,65436
22:48.8,65436
22:48.8,65436
22:48.8,65441
22:48.8,65428
22:48.8,65416
22:48.8,65428
22:48.8,65428
22:48.8,65428
22:48.8,65412
22:48.8,65436
22:48.8,65422
22:48.8,65422
22:48.8,65437
22:48.8,65428
22:48.8,65433
22:48.8,65415
22:48.8,65415
22:48.8,65434
22:48.8,65429
22:48.8,65435
22:48.8,65436
22:48.8,65436
22:48.8,65446
22:48.9,65444
22:48.9,65445
22:48.9,65442
22:48.9,65442
22:48.9,65454
22:48.9,65441
22:48.9,65457
22:48.9,65454
22:48.9,65454
22:48.9,65459
22:48.9,65459
22:48.9,65462
22:48.9,65469
22:48.9,65469
22:48.9,65473
22:48.9,65469
22:48.9,65468
22:48.9,65468
22:48.9,65474
22:48.9,65482
22:48.9,65479
22:48.9,65473
22:48.9,65473
22:48.9,65491
22:48.9,65466
22:48.9,65488
22:48.9,65481
22:48.9,65481
22:48.9,65479
22:48.9,65482
22:48.9,65483
22:48.9,65469
22:48.9,65469
22:48.9,65491
22:48.9,65499
22:48.9,65493
22:48.9,65485
22:48.9,65485
22:48.9,65485
22:48.9,65515
22:48.9,65485
22:48.9,65487
22:48.9,65487
22:48.9,65487
22:48.9,65482
22:48.9,65478
22:48.9,65473
22:48.9,65473
22:48.9,65483
22:48.9,65485
22:49.0,65480
22:49.0,65472
22:49.0,65472
22:49.0,65483
22:49.0,65490
22:49.0,65486
22:49.0,65481
22:49.0,65481
22:49.0,65490
22:49.0,65480
22:49.0,65485
22:49.0,65485
22:49.0,65486
22:49.0,65487
22:49.0,65477
22:49.0,65483
22:49.0,65483
22:49.0,65497
22:49.0,65496
22:49.0,65491
22:49.0,65494
22:49.0,65494
22:49.0,65491
22:49.0,65487
22:49.0,65489
22:49.0,65487
22:49.0,65487
22:49.0,65494
22:49.0,65492
22:49.0,65488
22:49.0,65492
22:49.0,65492
22:49.0,65494
22:49.0,65498
22:49.0,65494
22:49.0,65494
22:49.0,65494
22:49.0,65503
22:49.0,65500
22:49.0,65512
22:49.0,65506
22:49.0,65506
22:49.0,65502
22:49.0,65507
22:49.0,65501
22:49.0,65501
22:49.0,65501
22:49.0,65513
22:49.0,65512
22:49.0,65510
22:49.1,65522
22:49.1,65522
22:49.1,65515
22:49.1,65510
22:49.1,65508
22:49.1,65522
22:49.1,65522
22:49.1,65519
22:49.1,65518
22:49.1,65522
22:49.1,65522
22:49.1,65524
22:49.1,65528
22:49.1,65515
22:49.1,65513
22:49.1,65513
22:49.1,65535
22:49.1,65536
22:49.1,65549
22:49.1,65539
22:49.1,65539
22:49.1,65532
22:49.1,65537
22:49.1,65541
22:49.1,65533
22:49.1,65533
22:49.1,65544
22:49.1,65550
22:49.1,65559
22:49.1,65543
22:49.1,65543
22:49.1,65550
22:49.1,65553
22:49.1,65557
22:49.1,65554
22:49.1,65554
22:49.1,65566
22:49.1,65558
22:49.1,65567
22:49.1,65549
22:49.1,65549
22:49.1,65563
22:49.1,65573
22:49.1,65571
22:49.1,65576
22:49.1,65576
22:49.1,65571
22:49.1,65591
22:49.1,65584
22:49.1,65589
22:49.2,65589
22:49.2,65580
22:49.2,65597
22:49.2,65594
22:49.2,65594
22:49.2,65607
22:49.2,65604
22:49.2,65602
22:49.2,65600
22:49.2,65600
22:49.2,65617
22:49.2,65616
22:49.2,65610
22:49.2,65606
22:49.2,65606
22:49.2,65599
22:49.2,65589
22:49.2,65594
22:49.2,65580
22:49.2,65580
22:49.2,65583
22:49.2,65568
22:49.2,65563
22:49.2,65558
22:49.2,65558
22:49.2,65549
22:49.2,65547
22:49.2,65533
22:49.2,65517
22:49.2,65517
22:49.2,65525
22:49.2,65517
22:49.2,65514
22:49.2,65482
22:49.2,65482
22:49.2,65489
22:49.2,65469
22:49.2,65461
22:49.2,65439
22:49.2,65439
22:49.2,65440
22:49.2,65440
22:49.2,65432
22:49.2,65417
22:49.2,65417
22:49.2,65413
22:49.2,65412
22:49.2,65418
22:49.2,65412
22:49.2,65412
22:49.3,65398
22:49.3,65380
22:49.3,65375
22:49.3,65375
22:49.3,65371
22:49.3,65363
22:49.3,65357
22:49.3,65353
22:49.3,65353
22:49.3,65352
22:49.3,65334
22:49.3,65341
22:49.3,65322
22:49.3,65322
22:49.3,65325
22:49.3,65316
22:49.3,65326
22:49.3,65317
22:49.3,65317
22:49.3,65307
22:49.3,65305
22:49.3,65306
22:49.3,65280
22:49.3,65280
22:49.3,65299
22:49.3,65311
22:49.3,65306
22:49.3,65298
22:49.3,65298
22:49.3,65300
22:49.3,65298
22:49.3,65302
22:49.3,65287
22:49.3,65287
22:49.3,65299
22:49.3,65299
22:49.3,65294
22:49.3,65295
22:49.3,65295
22:49.3,65298
22:49.3,65293
22:49.3,65300
22:49.3,65307
22:49.3,65307
22:49.3,65300
22:49.3,65288
22:49.3,65298
22:49.3,65298
22:49.3,65297
22:49.3,65296
22:49.4,65296
22:49.4,65295
22:49.4,65295
22:49.4,65291
22:49.4,65293
22:49.4,65294
22:49.4,65284
22:49.4,65284
22:49.4,65294
22:49.4,65274
22:49.4,65287
22:49.4,65276
22:49.4,65276
22:49.4,65292
22:49.4,65290
22:49.4,65281
22:49.4,65284
22:49.4,65284
22:49.4,65275
22:49.4,65281
22:49.4,65279
22:49.4,65265
22:49.4,65265
22:49.4,65277
22:49.4,65273
22:49.4,65280
22:49.4,65279
22:49.4,65279
22:49.4,65280
22:49.4,65276
22:49.4,65271
22:49.4,65281
22:49.4,65281
22:49.4,65280
22:49.4,65286
22:49.4,65284
22:49.4,65282
22:49.4,65282
22:49.4,65283
22:49.4,65285
22:49.4,65282
22:49.4,65300
22:49.4,65300
22:49.4,65292
22:49.4,65293
22:49.4,65288
22:49.4,65288
22:49.4,65308
22:49.4,65294
22:49.4,65305
22:49.5,65304
22:49.5,65304
22:49.5,65303
22:49.5,65308
22:49.5,65319
22:49.5,65303
22:49.5,65303
22:49.5,65317
22:49.5,65307
22:49.5,65313
22:49.5,65317
22:49.5,65317
22:49.5,65308
22:49.5,65314
22:49.5,65320
22:49.5,65320
22:49.5,65320
22:49.5,65323
22:49.5,65327
22:49.5,65327
22:49.5,65309
22:49.5,65309
22:49.5,65332
22:49.5,65321
22:49.5,65328
22:49.5,65331
22:49.5,65331
22:49.5,65333
22:49.5,65344
22:49.5,65337
22:49.5,65346
22:49.5,65346
22:49.5,65331
22:49.5,65344
22:49.5,65350
22:49.5,65357
22:49.5,65357
22:49.5,65347
22:49.5,65352
22:49.5,65355
22:49.5,65355
22:49.5,65356
22:49.5,65366
22:49.5,65355
22:49.5,65376
22:49.5,65376
22:49.5,65383
22:49.5,65390
22:49.5,65378
22:49.5,65383
22:49.6,65383
22:49.6,65388
22:49.6,65396
22:49.6,65392
22:49.6,65408
22:49.6,65408
22:49.6,65414
22:49.6,65404
22:49.6,65412
22:49.6,65409
22:49.6,65409
22:49.6,65426
22:49.6,65421
22:49.6,65429
22:49.6,65422
22:49.6,65422
22:49.6,65437
22:49.6,65445
22:49.6,65445
22:49.6,65444
22:49.6,65444
22:49.6,65449
22:49.6,65457
22:49.6,65454
22:49.6,65450
22:49.6,65450
22:49.6,65474
22:49.6,65464
22:49.6,65471
22:49.6,65477
22:49.6,65477
22:49.6,65473
22:49.6,65481
22:49.6,65490
22:49.6,65491
22:49.6,65491
22:49.6,65489
22:49.6,65498
22:49.6,65501
22:49.6,65501
22:49.6,65503
22:49.6,65507
22:49.6,65510
22:49.6,65511
22:49.6,65511
22:49.6,65518
22:49.6,65518
22:49.6,65521
22:49.6,65528
22:49.6,65528
22:49.7,65533
22:49.7,65539
22:49.7,65546
22:49.7,65550
22:49.7,65550
22:49.7,65551
22:49.7,65558
22:49.7,65556
22:49.7,65556
22:49.7,65556
22:49.7,65568
22:49.7,65570
22:49.7,65583
22:49.7,65570
22:49.7,65570
22:49.7,65578
22:49.7,65574
22:49.7,65588
22:49.7,65584
22:49.7,65584
22:49.7,65594
22:49.7,65590
22:49.7,65610
22:49.7,65601
22:49.7,65601
22:49.7,65616
22:49.7,65606
22:49.7,65611
22:49.7,65625
22:49.7,65625
22:49.7,65606
22:49.7,65623
22:49.7,65622
22:49.7,65622
22:49.7,65629
22:49.7,65638
22:49.7,65623
22:49.7,65617
22:49.7,65617
22:49.7,65623
22:49.7,65625
22:49.7,65623
22:49.7,65611
22:49.7,65611
22:49.7,65617
22:49.7,65611
22:49.7,65606
22:49.7,65585
22:49.7,65585
22:49.7,65591
22:49.8,65576
22:49.8,65565
22:49.8,65567
22:49.8,65567
22:49.8,65554
22:49.8,65541
22:49.8,65536
22:49.8,65512
22:49.8,65512
22:49.8,65509
22:49.8,65502
22:49.8,65480
22:49.8,65464
22:49.8,65464
22:49.8,65480
22:49.8,65463
22:49.8,65441
22:49.8,65429
22:49.8,65429
22:49.8,65421
22:49.8,65411
22:49.8,65389
22:49.8,65400
22:49.8,65400
22:49.8,65375
22:49.8,65356
22:49.8,65346
22:49.8,65349
22:49.8,65349
22:49.8,65327
22:49.8,65317
22:49.8,65296
22:49.8,65296
22:49.8,65297
22:49.8,65281
22:49.8,65271
22:49.8,65262
22:49.8,65262
22:49.8,65242
22:49.8,65227
22:49.8,65211
22:49.8,65199
22:49.8,65199
22:49.8,65189
22:49.8,65179
22:49.8,65165
22:49.8,65153
22:49.8,65153
22:49.8,65147
22:49.8,65140
22:49.9,65139
22:49.9,65130
22:49.9,65130
22:49.9,65131
22:49.9,65119
22:49.9,65115
22:49.9,65100
22:49.9,65100
22:49.9,65106
22:49.9,65093
22:49.9,65095
22:49.9,65080
22:49.9,65080
22:49.9,65092
22:49.9,65097
22:49.9,65076
22:49.9,65072
22:49.9,65072
22:49.9,65076
22:49.9,65065
22:49.9,65068
22:49.9,65077
22:49.9,65077
22:49.9,65070
22:49.9,65058
22:49.9,65073
22:49.9,65073
22:49.9,65061
22:49.9,65067
22:49.9,65061
22:49.9,65063
22:49.9,65063
22:49.9,65060
22:49.9,65055
22:49.9,65059
22:49.9,65053
22:49.9,65053
22:49.9,65047
22:49.9,65047
22:49.9,65051
22:49.9,65050
22:49.9,65050
22:49.9,65055
22:49.9,65071
22:49.9,65050
22:49.9,65058
22:49.9,65058
22:49.9,65054
22:49.9,65065
22:49.9,65069
22:50.0,65065
22:50.0,65065
22:50.0,65069
22:50.0,65081
22:50.0,65085
22:50.0,65083
22:50.0,65083
22:50.0,65097
22:50.0,65100
22:50.0,65100
22:50.0,65107
22:50.0,65107
22:50.0,65126
22:50.0,65122
22:50.0,65124
22:50.0,65142
22:50.0,65142
22:50.0,65143
22:50.0,65155
22:50.0,65159
22:50.0,65184
22:50.0,65184
22:50.0,65167
22:50.0,65169
22:50.0,65180
22:50.0,65180
22:50.0,65187
22:50.0,65195
22:50.0,65209
22:50.0,65194
22:50.0,65194
22:50.0,65209
22:50.0,65207
22:50.0,65222
22:50.0,65221
22:50.0,65221
22:50.0,65223
22:50.0,65229
22:50.0,65238
22:50.0,65245
22:50.0,65245
22:50.0,65245
22:50.0,65256
22:50.0,65261
22:50.0,65243
22:50.0,65243
22:50.0,65259
22:50.0,65260
22:50.0,65272
22:50.0,65271
22:50.1,65271
22:50.1,65267
22:50.1,65276
22:50.1,65285
22:50.1,65275
22:50.1,65275
22:50.1,65279
22:50.1,65290
22:50.1,65304
22:50.1,65298
22:50.1,65298
22:50.1,65299
22:50.1,65314
22:50.1,65305
22:50.1,65309
22:50.1,65309
22:50.1,65320
22:50.1,65321
22:50.1,65324
22:50.1,65324
22:50.1,65349
22:50.1,65328
22:50.1,65327
22:50.1,65333
22:50.1,65333
22:50.1,65348
22:50.1,65349
22:50.1,65348
22:50.1,65345
22:50.1,65345
22:50.1,65355
22:50.1,65359
22:50.1,65359
22:50.1,65355
22:50.1,65355
22:50.1,65361
22:50.1,65366
22:50.1,65367
22:50.1,65367
22:50.1,65367
22:50.1,65374
22:50.1,65376
22:50.1,65368
22:50.1,65369
22:50.1,65369
22:50.1,65380
22:50.1,65388
22:50.1,65384
22:50.1,65381
22:50.2,65381
22:50.2,65396
22:50.2,65393
22:50.2,65399
22:50.2,65396
22:50.2,65396
22:50.2,65401
22:50.2,65403
22:50.2,65405
22:50.2,65416
22:50.2,65416
22:50.2,65419
22:50.2,65412
22:50.2,65408
22:50.2,65420
22:50.2,65420
22:50.2,65411
22:50.2,65423
22:50.2,65416
22:50.2,65416
22:50.2,65435
22:50.2,65417
22:50.2,65432
22:50.2,65413
22:50.2,65413
22:50.2,65433
22:50.2,65429
22:50.2,65425
22:50.2,65431
22:50.2,65431
22:50.2,65431
22:50.2,65430
22:50.2,65434
22:50.2,65424
22:50.2,65424
22:50.2,65429
22:50.2,65413
22:50.2,65428
22:50.2,65437
22:50.2,65437
22:50.2,65436
22:50.2,65437
22:50.2,65434
22:50.2,65438
22:50.2,65438
22:50.2,65459
22:50.2,65442
22:50.2,65450
22:50.2,65445
22:50.2,65445
22:50.2,65456
22:50.3,65451
22:50.3,65457
22:50.3,65454
22:50.3,65454
22:50.3,65461
22:50.3,65462
22:50.3,65464
22:50.3,65461
22:50.3,65461
22:50.3,65460
22:50.3,65462
22:50.3,65469
22:50.3,65469
22:50.3,65474
22:50.3,65470
22:50.3,65453
22:50.3,65460
22:50.3,65460
22:50.3,65459
22:50.3,65460
22:50.3,65450
22:50.3,65431
22:50.3,65431
22:50.3,65431
22:50.3,65425
22:50.3,65427
22:50.3,65409
22:50.3,65409
22:50.3,65412
22:50.3,65397
22:50.3,65382
22:50.3,65384
22:50.3,65384
22:50.3,65384
22:50.3,65379
22:50.3,65358
22:50.3,65350
22:50.3,65350
22:50.3,65349
22:50.3,65336
22:50.3,65324
22:50.3,65312
22:50.3,65312
22:50.3,65317
22:50.3,65304
22:50.3,65297
22:50.3,65287
22:50.3,65287
22:50.3,65280
22:50.3,65275
22:50.4,65272
22:50.4,65257
22:50.4,65257
22:50.4,65266
22:50.4,65255
22:50.4,65247
22:50.4,65250
22:50.4,65250
22:50.4,65237
22:50.4,65222
22:50.4,65239
22:50.4,65239
22:50.4,65224
22:50.4,65225
22:50.4,65215
22:50.4,65216
22:50.4,65216
22:50.4,65218
22:50.4,65217
22:50.4,65220
22:50.4,65205
22:50.4,65205
22:50.4,65208
22:50.4,65209
22:50.4,65208
22:50.4,65207
22:50.4,65207
22:50.4,65204
22:50.4,65206
22:50.4,65201
22:50.4,65204
22:50.4,65204
22:50.4,65208
22:50.4,65214
22:50.4,65209
22:50.4,65203
22:50.4,65203
22:50.4,65218
22:50.4,65221
22:50.4,65213
22:50.4,65209
22:50.4,65209
22:50.4,65236
22:50.4,65227
22:50.4,65222
22:50.4,65223
22:50.4,65223
22:50.4,65227
22:50.4,65234
22:50.4,65231
22:50.5,65249
22:50.5,65249
22:50.5,65239
22:50.5,65251
22:50.5,65265
22:50.5,65265
22:50.5,65254
22:50.5,65252
22:50.5,65262
22:50.5,65254
22:50.5,65254
22:50.5,65279
22:50.5,65267
22:50.5,65275
22:50.5,65285
22:50.5,65285
22:50.5,65299
22:50.5,65300
22:50.5,65318
22:50.5,65291
22:50.5,65291
22:50.5,65307
22:50.5,65310
22:50.5,65311
22:50.5,65316
22:50.5,65316
22:50.5,65324
22:50.5,65317
22:50.5,65342
22:50.5,65329
22:50.5,65329
22:50.5,65340
22:50.5,65344
22:50.5,65344
22:50.5,65349
22:50.5,65349
22:50.5,65358
22:50.5,65370
22:50.5,65377
22:50.5,65369
22:50.5,65369
22:50.5,65374
22:50.5,65380
22:50.5,65374
22:50.5,65386
22:50.5,65386
22:50.5,65386
22:50.5,65393
22:50.5,65397
22:50.5,65414
22:50.6,65414
22:50.6,65418
22:50.6,65420
22:50.6,65406
22:50.6,65406
22:50.6,65423
22:50.6,65431
22:50.6,65427
22:50.6,65437
22:50.6,65437
22:50.6,65437
22:50.6,65434
22:50.6,65433
22:50.6,65430
22:50.6,65430
22:50.6,65439
22:50.6,65440
22:50.6,65448
22:50.6,65443
22:50.6,65443
22:50.6,65446
22:50.6,65454
22:50.6,65445
22:50.6,65448
22:50.6,65448
22:50.6,65454
22:50.6,65455
22:50.6,65461
22:50.6,65467
22:50.6,65467
22:50.6,65462
22:50.6,65466
22:50.6,65459
22:50.6,65459
22:50.6,65459
22:50.6,65475
22:50.6,65463
22:50.6,65474
22:50.6,65464
22:50.6,65464
22:50.6,65468
22:50.6,65467
22:50.6,65474
22:50.6,65475
22:50.6,65475
22:50.6,65469
22:50.6,65483
22:50.6,65492
22:50.6,65492
22:50.6,65480
22:50.7,65476
22:50.7,65483
22:50.7,65484
22:50.7,65484
22:50.7,65493
22:50.7,65494
22:50.7,65493
22:50.7,65485
22:50.7,65485
22:50.7,65491
22:50.7,65474
22:50.7,65497
22:50.7,65500
22:50.7,65500
22:50.7,65503
22:50.7,65498
22:50.7,65499
22:50.7,65506
22:50.7,65506
22:50.7,65512
22:50.7,65500
22:50.7,65509
22:50.7,65502
22:50.7,65502
22:50.7,65525
22:50.7,65521
22:50.7,65527
22:50.7,65517
22:50.7,65517
22:50.7,65524
22:50.7,65521
22:50.7,65525
22:50.7,65519
22:50.7,65519
22:50.7,65524
22:50.7,65533
22:50.7,65533
22:50.7,65527
22:50.7,65527
22:50.7,65538
22:50.7,65528
22:50.7,65543
22:50.7,65534
22:50.7,65534
22:50.7,65521
22:50.7,65527
22:50.7,65525
22:50.7,65525
22:50.7,65539
22:50.7,65523
22:50.8,65513
22:50.8,65527
22:50.8,65527
22:50.8,65518
22:50.8,65526
22:50.8,65536
22:50.8,65530
22:50.8,65530
22:50.8,65532
22:50.8,65538
22:50.8,65542
22:50.8,65524
22:50.8,65524
22:50.8,65538
22:50.8,65554
22:50.8,65529
22:50.8,65529
22:50.8,65529
22:50.8,65533
22:50.8,65530
22:50.8,65535
22:50.8,65534
22:50.8,65534
22:50.8,65534
22:50.8,65540
22:50.8,65538
22:50.8,65543
22:50.8,65543
22:50.8,65546
22:50.8,65530
22:50.8,65542
22:50.8,65544
22:50.8,65544
22:50.8,65556
22:50.8,65559
22:50.8,65549
22:50.8,65556
22:50.8,65556
22:50.8,65547
22:50.8,65528
22:50.8,65543
22:50.8,65543
22:50.8,65552
22:50.8,65545
22:50.8,65531
22:50.8,65541
22:50.8,65541
22:50.8,65544
22:50.8,65528
22:50.9,65537
22:50.9,65521
22:50.9,65521
22:50.9,65507
22:50.9,65513
22:50.9,65497
22:50.9,65493
22:50.9,65493
22:50.9,65492
22:50.9,65497
22:50.9,65484
22:50.9,65469
22:50.9,65469
22:50.9,65468
22:50.9,65458
22:50.9,65448
22:50.9,65433
22:50.9,65433
22:50.9,65434
22:50.9,65440
22:50.9,65421
22:50.9,65395
22:50.9,65395
22:50.9,65408
22:50.9,65404
22:50.9,65381
22:50.9,65368
22:50.9,65368
22:50.9,65368
22:50.9,65365
22:50.9,65355
22:50.9,65340
22:50.9,65340
22:50.9,65332
22:50.9,65320
22:50.9,65321
22:50.9,65320
22:50.9,65320
22:50.9,65304
22:50.9,65306
22:50.9,65285
22:50.9,65285
22:50.9,65291
22:50.9,65283
22:50.9,65267
22:50.9,65278
22:50.9,65278
22:50.9,65273
22:50.9,65258
22:50.9,65253
22:50.9,65245
22:51.0,65245
22:51.0,65262
22:51.0,65245
22:51.0,65235
22:51.0,65244
22:51.0,65244
22:51.0,65243
22:51.0,65241
22:51.0,65231
22:51.0,65222
22:51.0,65222
22:51.0,65222
22:51.0,65223
22:51.0,65230
22:51.0,65215
22:51.0,65215
22:51.0,65220
22:51.0,65222
22:51.0,65220
22:51.0,65209
22:51.0,65209
22:51.0,65220
22:51.0,65231
22:51.0,65220
22:51.0,65214
22:51.0,65214
22:51.0,65228
22:51.0,65220
22:51.0,65222
22:51.0,65232
22:51.0,65232
22:51.0,65232
22:51.0,65244
22:51.0,65237
22:51.0,65240
22:51.0,65240
22:51.0,65234
22:51.0,65242
22:51.0,65235
22:51.0,65235
22:51.0,65255
22:51.0,65245
22:51.0,65241
22:51.0,65253
22:51.0,65253
22:51.0,65255
22:51.0,65254
22:51.0,65259
22:51.0,65255
22:51.0,65255
22:51.1,65268
22:51.1,65257
22:51.1,65274
22:51.1,65264
22:51.1,65264
22:51.1,65288
22:51.1,65267
22:51.1,65279
22:51.1,65272
22:51.1,65272
22:51.1,65300
22:51.1,65294
22:51.1,65316
22:51.1,65301
22:51.1,65301
22:51.1,65302
22:51.1,65311
22:51.1,65306
22:51.1,65302
22:51.1,65302
22:51.1,65316
22:51.1,65328
22:51.1,65321
22:51.1,65320
22:51.1,65320
22:51.1,65335
22:51.1,65339
22:51.1,65340
22:51.1,65341
22:51.1,65341
22:51.1,65340
22:51.1,65336
22:51.1,65339
22:51.1,65339
22:51.1,65343
22:51.1,65352
22:51.1,65343
22:51.1,65335
22:51.1,65335
22:51.1,65350
22:51.1,65338
22:51.1,65339
22:51.1,65332
22:51.1,65332
22:51.1,65333
22:51.1,65335
22:51.1,65323
22:51.1,65316
22:51.1,65316
22:51.1,65327
22:51.2,65324
22:51.2,65325
22:51.2,65325
22:51.2,65325
22:51.2,65313
22:51.2,65314
22:51.2,65323
22:51.2,65304
22:51.2,65304
22:51.2,65312
22:51.2,65306
22:51.2,65302
22:51.2,65291
22:51.2,65291
22:51.2,65287
22:51.2,65304
22:51.2,65295
22:51.2,65284
22:51.2,65284
22:51.2,65281
22:51.2,65290
22:51.2,65295
22:51.2,65299
22:51.2,65299
22:51.2,65288
22:51.2,65281
22:51.2,65291
22:51.2,65294
22:51.2,65294
22:51.2,65289
22:51.2,65278
22:51.2,65268
22:51.2,65268
22:51.2,65285
22:51.2,65279
22:51.2,65276
22:51.2,65281
22:51.2,65281
22:51.2,65296
22:51.2,65273
22:51.2,65274
22:51.2,65286
22:51.2,65286
22:51.2,65278
22:51.2,65276
22:51.2,65283
22:51.2,65288
22:51.2,65288
22:51.2,65278
22:51.2,65273
22:51.3,65280
22:51.3,65285
22:51.3,65285
22:51.3,65282
22:51.3,65273
22:51.3,65280
22:51.3,65280
22:51.3,65280
22:51.3,65296
22:51.3,65287
22:51.3,65298
22:51.3,65290
22:51.3,65290
22:51.3,65292
22:51.3,65300
22:51.3,65295
22:51.3,65287
22:51.3,65287
22:51.3,65302
22:51.3,65296
22:51.3,65281
22:51.3,65298
22:51.3,65298
22:51.3,65303
22:51.3,65303
22:51.3,65301
22:51.3,65301
22:51.3,65301
22:51.3,65312
22:51.3,65316
22:51.3,65305
22:51.3,65305
22:51.3,65321
22:51.3,65319
22:51.3,65320
22:51.3,65322
22:51.3,65322
22:51.3,65325
22:51.3,65323
22:51.3,65328
22:51.3,65329
22:51.3,65329
22:51.3,65342
22:51.3,65330
22:51.3,65337
22:51.3,65330
22:51.3,65330
22:51.3,65350
22:51.3,65347
22:51.3,65340
22:51.4,65345
22:51.4,65345
22:51.4,65354
22:51.4,65359
22:51.4,65360
22:51.4,65369
22:51.4,65369
22:51.4,65380
22:51.4,65386
22:51.4,65396
22:51.4,65380
22:51.4,65380
22:51.4,65405
22:51.4,65395
22:51.4,65401
22:51.4,65395
22:51.4,65395
22:51.4,65416
22:51.4,65419
22:51.4,65425
22:51.4,65417
22:51.4,65417
22:51.4,65430
22:51.4,65439
22:51.4,65439
22:51.4,65439
22:51.4,65443
22:51.4,65430
22:51.4,65450
22:51.4,65449
22:51.4,65449
22:51.4,65457
22:51.4,65453
22:51.4,65452
22:51.4,65444
22:51.4,65444
22:51.4,65439
22:51.4,65437
22:51.4,65429
22:51.4,65423
22:51.4,65423
22:51.4,65425
22:51.4,65410
22:51.4,65407
22:51.4,65411
22:51.4,65411
22:51.4,65394
22:51.4,65393
22:51.4,65386
22:51.4,65360
22:51.5,65360
22:51.5,65359
22:51.5,65356
22:51.5,65348
22:51.5,65358
22:51.5,65358
22:51.5,65337
22:51.5,65337
22:51.5,65339
22:51.5,65325
22:51.5,65325
22:51.5,65309
22:51.5,65311
22:51.5,65306
22:51.5,65297
22:51.5,65297
22:51.5,65300
22:51.5,65281
22:51.5,65283
22:51.5,65275
22:51.5,65275
22:51.5,65274
22:51.5,65261
22:51.5,65262
22:51.5,65262
22:51.5,65266
22:51.5,65251
22:51.5,65236
22:51.5,65233
22:51.5,65233
22:51.5,65243
22:51.5,65242
22:51.5,65221
22:51.5,65230
22:51.5,65230
22:51.5,65226
22:51.5,65220
22:51.5,65218
22:51.5,65208
22:51.5,65208
22:51.5,65234
22:51.5,65220
22:51.5,65210
22:51.5,65197
22:51.5,65197
22:51.5,65210
22:51.5,65198
22:51.5,65197
22:51.5,65192
22:51.5,65192
22:51.6,65198
22:51.6,65199
22:51.6,65194
22:51.6,65187
22:51.6,65187
22:51.6,65189
22:51.6,65202
22:51.6,65199
22:51.6,65193
22:51.6,65193
22:51.6,65206
22:51.6,65197
22:51.6,65194
22:51.6,65196
22:51.6,65196
22:51.6,65189
22:51.6,65190
22:51.6,65197
22:51.6,65197
22:51.6,65204
22:51.6,65191
22:51.6,65199
22:51.6,65215
22:51.6,65215
22:51.6,65205
22:51.6,65202
22:51.6,65207
22:51.6,65211
22:51.6,65211
22:51.6,65208
22:51.6,65220
22:51.6,65216
22:51.6,65218
22:51.6,65218
22:51.6,65217
22:51.6,65204
22:51.6,65229
22:51.6,65216
22:51.6,65216
22:51.6,65225
22:51.6,65217
22:51.6,65222
22:51.6,65222
22:51.6,65222
22:51.6,65229
22:51.6,65229
22:51.6,65238
22:51.6,65229
22:51.6,65229
22:51.6,65237
22:51.7,65238
22:51.7,65241
22:51.7,65234
22:51.7,65234
22:51.7,65246
22:51.7,65248
22:51.7,65244
22:51.7,65263
22:51.7,65263
22:51.7,65266
22:51.7,65266
22:51.7,65259
22:51.7,65254
22:51.7,65254
22:51.7,65259
22:51.7,65281
22:51.7,65266
22:51.7,65266
22:51.7,65280
22:51.7,65264
22:51.7,65274
22:51.7,65272
22:51.7,65272
22:51.7,65277
22:51.7,65274
22:51.7,65275
22:51.7,65270
22:51.7,65270
22:51.7,65275
22:51.7,65271
22:51.7,65269
22:51.7,65266
22:51.7,65266
22:51.7,65273
22:51.7,65268
22:51.7,65280
22:51.7,65270
22:51.7,65270
22:51.7,65276
22:51.7,65281
22:51.7,65277
22:51.7,65257
22:51.7,65257
22:51.7,65284
22:51.7,65280
22:51.7,65272
22:51.7,65255
22:51.7,65255
22:51.7,65271
22:51.7,65265
22:51.8,65268
22:51.8,65266
22:51.8,65266
22:51.8,65265
22:51.8,65272
22:51.8,65272
22:51.8,65275
22:51.8,65275
22:51.8,65274
22:51.8,65267
22:51.8,65265
22:51.8,65277
22:51.8,65277
22:51.8,65269
22:51.8,65241
22:51.8,65269
22:51.8,65269
22:51.8,65278
22:51.8,65275
22:51.8,65275
22:51.8,65266
22:51.8,65266
22:51.8,65280
22:51.8,65277
22:51.8,65275
22:51.8,65275
22:51.8,65275
22:51.8,65283
22:51.8,65283
22:51.8,65280
22:51.8,65280
22:51.8,65280
22:51.8,65284
22:51.8,65291
22:51.8,65293
22:51.8,65292
22:51.8,65292
22:51.8,65293
22:51.8,65302
22:51.8,65301
22:51.8,65285
22:51.8,65285
22:51.8,65305
22:51.8,65298
22:51.8,65307
22:51.8,65298
22:51.8,65298
22:51.8,65309
22:51.8,65299
22:51.8,65310
22:51.9,65312
22:51.9,65312
22:51.9,65321
22:51.9,65329
22:51.9,65315
22:51.9,65332
22:51.9,65332
22:51.9,65324
22:51.9,65339
22:51.9,65339
22:51.9,65339
22:51.9,65349
22:51.9,65355
22:51.9,65353
22:51.9,65363
22:51.9,65363
22:51.9,65360
22:51.9,65355
22:51.9,65380
22:51.9,65363
22:51.9,65363
22:51.9,65368
22:51.9,65378
22:51.9,65389
22:51.9,65387
22:51.9,65387
22:51.9,65396
22:51.9,65393
22:51.9,65398
22:51.9,65394
22:51.9,65394
22:51.9,65406
22:51.9,65409
22:51.9,65416
22:51.9,65408
22:51.9,65408
22:51.9,65422
22:51.9,65423
22:51.9,65438
22:51.9,65438
22:51.9,65438
22:51.9,65444
22:51.9,65449
22:51.9,65430
22:51.9,65451
22:51.9,65451
22:51.9,65446
22:51.9,65458
22:51.9,65466
22:51.9,65473
22:52.0,65473
22:52.0,65471
22:52.0,65467
22:52.0,65472
22:52.0,65472
22:52.0,65477
22:52.0,65481
22:52.0,65475
22:52.0,65470
22:52.0,65470
22:52.0,65475
22:52.0,65465
22:52.0,65475
22:52.0,65458
22:52.0,65458
22:52.0,65461
22:52.0,65450
22:52.0,65461
22:52.0,65441
22:52.0,65441
22:52.0,65440
22:52.0,65429
22:52.0,65424
22:52.0,65413
22:52.0,65413
22:52.0,65400
22:52.0,65398
22:52.0,65397
22:52.0,65384
22:52.0,65384
22:52.0,65379
22:52.0,65369
22:52.0,65367
22:52.0,65351
22:52.0,65351
22:52.0,65361
22:52.0,65345
22:52.0,65347
22:52.0,65341
22:52.0,65341
22:52.0,65325
22:52.0,65324
22:52.0,65326
22:52.0,65321
22:52.0,65321
22:52.0,65315
22:52.0,65297
22:52.0,65321
22:52.0,65309
22:52.0,65309
22:52.1,65304
22:52.1,65299
22:52.1,65290
22:52.1,65290
22:52.1,65305
22:52.1,65291
22:52.1,65289
22:52.1,65292
22:52.1,65292
22:52.1,65293
22:52.1,65284
22:52.1,65292
22:52.1,65280
22:52.1,65280
22:52.1,65287
22:52.1,65283
22:52.1,65282
22:52.1,65272
22:52.1,65272
22:52.1,65277
22:52.1,65274
22:52.1,65284
22:52.1,65265
22:52.1,65265
22:52.1,65280
22:52.1,65283
22:52.1,65284
22:52.1,65285
22:52.1,65285
22:52.1,65280
22:52.1,65287
22:52.1,65287
22:52.1,65279
22:52.1,65279
22:52.1,65295
22:52.1,65286
22:52.1,65287
22:52.1,65287
22:52.1,65287
22:52.1,65291
22:52.1,65295
22:52.1,65291
22:52.1,65298
22:52.1,65298
22:52.1,65302
22:52.1,65295
22:52.1,65298
22:52.1,65298
22:52.1,65298
22:52.1,65293
22:52.2,65293
22:52.2,65298
22:52.2,65298
22:52.2,65305
22:52.2,65301
22:52.2,65294
22:52.2,65293
22:52.2,65293
22:52.2,65315
22:52.2,65308
22:52.2,65308
22:52.2,65297
22:52.2,65297
22:52.2,65299
22:52.2,65310
22:52.2,65301
22:52.2,65305
22:52.2,65305
22:52.2,65319
22:52.2,65313
22:52.2,65303
22:52.2,65328
22:52.2,65328
22:52.2,65316
22:52.2,65307
22:52.2,65323
22:52.2,65316
22:52.2,65316
22:52.2,65313
22:52.2,65319
22:52.2,65320
22:52.2,65317
22:52.2,65317
22:52.2,65322
22:52.2,65321
22:52.2,65317
22:52.2,65318
22:52.2,65318
22:52.2,65323
22:52.2,65320
22:52.2,65329
22:52.2,65328
22:52.2,65328
22:52.2,65337
22:52.2,65326
22:52.2,65327
22:52.2,65327
22:52.2,65324
22:52.2,65324
22:52.2,65321
22:52.3,65314
22:52.3,65314
22:52.3,65321
22:52.3,65318
22:52.3,65335
22:52.3,65323
22:52.3,65323
22:52.3,65328
22:52.3,65328
22:52.3,65342
22:52.3,65328
22:52.3,65328
22:52.3,65334
22:52.3,65343
22:52.3,65340
22:52.3,65328
22:52.3,65328
22:52.3,65333
22:52.3,65338
22:52.3,65334
22:52.3,65336
22:52.3,65336
22:52.3,65344
22:52.3,65342
22:52.3,65347
22:52.3,65345
22:52.3,65345
22:52.3,65344
22:52.3,65339
22:52.3,65340
22:52.3,65353
22:52.3,65353
22:52.3,65365
22:52.3,65355
22:52.3,65363
22:52.3,65367
22:52.3,65367
22:52.3,65364
22:52.3,65363
22:52.3,65368
22:52.3,65368
22:52.3,65375
22:52.3,65375
22:52.3,65375
22:52.3,65378
22:52.3,65378
22:52.3,65374
22:52.3,65385
22:52.3,65380
22:52.4,65384
22:52.4,65384
22:52.4,65388
22:52.4,65385
22:52.4,65397
22:52.4,65399
22:52.4,65399
22:52.4,65430
22:52.4,65399
22:52.4,65408
22:52.4,65410
22:52.4,65410
22:52.4,65420
22:52.4,65423
22:52.4,65421
22:52.4,65426
22:52.4,65426
22:52.4,65428
22:52.4,65445
22:52.4,65441
22:52.4,65443
22:52.4,65443
22:52.4,65461
22:52.4,65460
22:52.4,65480
22:52.4,65471
22:52.4,65471
22:52.4,65476
22:52.4,65483
22:52.4,65487
22:52.4,65499
22:52.4,65499
22:52.4,65483
22:52.4,65497
22:52.4,65507
22:52.4,65510
22:52.4,65510
22:52.4,65510
22:52.4,65520
22:52.4,65530
22:52.4,65530
22:52.4,65536
22:52.4,65536
22:52.4,65542
22:52.4,65545
22:52.4,65545
22:52.4,65549
22:52.4,65550
22:52.4,65556
22:52.4,65565
22:52.4,65565
22:52.5,65564
22:52.5,65564
22:52.5,65579
22:52.5,65574
22:52.5,65574
22:52.5,65577
22:52.5,65583
22:52.5,65608
22:52.5,65599
22:52.5,65599
22:52.5,65616
22:52.5,65618
22:52.5,65620
22:52.5,65607
22:52.5,65607
22:52.5,65631
22:52.5,65634
22:52.5,65633
22:52.5,65642
22:52.5,65642
22:52.5,65643
22:52.5,65651
22:52.5,65660
22:52.5,65655
22:52.5,65655
22:52.5,65673
22:52.5,65663
22:52.5,65666
22:52.5,65673
22:52.5,65673
22:52.5,65670
22:52.5,65678
22:52.5,65682
22:52.5,65682
22:52.5,65684
22:52.5,65693
22:52.5,65670
22:52.5,65664
22:52.5,65664
22:52.5,65661
22:52.5,65656
22:52.5,65654
22:52.5,65638
22:52.5,65638
22:52.5,65643
22:52.5,65617
22:52.5,65620
22:52.5,65597
22:52.5,65597
22:52.5,65604
22:52.6,65592
22:52.6,65592
22:52.6,65581
22:52.6,65581
22:52.6,65577
22:52.6,65568
22:52.6,65570
22:52.6,65558
22:52.6,65558
22:52.6,65550
22:52.6,65541
22:52.6,65543
22:52.6,65523
22:52.6,65523
22:52.6,65528
22:52.6,65517
22:52.6,65503
22:52.6,65505
22:52.6,65505
22:52.6,65503
22:52.6,65507
22:52.6,65496
22:52.6,65483
22:52.6,65483
22:52.6,65482
22:52.6,65488
22:52.6,65477
22:52.6,65485
22:52.6,65485
22:52.6,65481
22:52.6,65480
22:52.6,65476
22:52.6,65476
22:52.6,65478
22:52.6,65465
22:52.6,65463
22:52.6,65458
22:52.6,65458
22:52.6,65472
22:52.6,65460
22:52.6,65458
22:52.6,65458
22:52.6,65458
22:52.6,65461
22:52.6,65459
22:52.6,65463
22:52.6,65445
22:52.6,65445
22:52.6,65454
22:52.6,65450
22:52.7,65452
22:52.7,65440
22:52.7,65440
22:52.7,65441
22:52.7,65443
22:52.7,65449
22:52.7,65428
22:52.7,65428
22:52.7,65441
22:52.7,65431
22:52.7,65443
22:52.7,65440
22:52.7,65440
22:52.7,65442
22:52.7,65452
22:52.7,65446
22:52.7,65434
22:52.7,65434
22:52.7,65434
22:52.7,65436
22:52.7,65449
22:52.7,65446
22:52.7,65446
22:52.7,65451
22:52.7,65441
22:52.7,65433
22:52.7,65433
22:52.7,65438
22:52.7,65443
22:52.7,65447
22:52.7,65436
22:52.7,65436
22:52.7,65454
22:52.7,65451
22:52.7,65449
22:52.7,65448
22:52.7,65448
22:52.7,65442
22:52.7,65447
22:52.7,65442
22:52.7,65452
22:52.7,65452
22:52.7,65446
22:52.7,65447
22:52.7,65439
22:52.7,65451
22:52.7,65451
22:52.7,65452
22:52.7,65449
22:52.7,65458
22:52.8,65443
22:52.8,65443
22:52.8,65465
22:52.8,65460
22:52.8,65472
22:52.8,65452
22:52.8,65452
22:52.8,65480
22:52.8,65478
22:52.8,65485
22:52.8,65487
22:52.8,65487
22:52.8,65497
22:52.8,65494
22:52.8,65490
22:52.8,65493
22:52.8,65493
22:52.8,65507
22:52.8,65503
22:52.8,65510
22:52.8,65505
22:52.8,65505
22:52.8,65516
22:52.8,65517
22:52.8,65524
22:52.8,65524
22:52.8,65530
22:52.8,65529
22:52.8,65521
22:52.8,65530
22:52.8,65530
22:52.8,65557
22:52.8,65527
22:52.8,65529
22:52.8,65536
22:52.8,65536
22:52.8,65537
22:52.8,65538
22:52.8,65547
22:52.8,65547
22:52.8,65547
22:52.8,65563
22:52.8,65557
22:52.8,65569
22:52.8,65556
22:52.8,65556
22:52.8,65558
22:52.8,65568
22:52.8,65573
22:52.8,65565
22:52.9,65565
22:52.9,65581
22:52.9,65570
22:52.9,65594
22:52.9,65590
22:52.9,65590
22:52.9,65576
22:52.9,65589
22:52.9,65606
22:52.9,65604
22:52.9,65604
22:52.9,65616
22:52.9,65611
22:52.9,65611
22:52.9,65618
22:52.9,65618
22:52.9,65628
22:52.9,65620
22:52.9,65623
22:52.9,65623
22:52.9,65628
22:52.9,65620
22:52.9,65627
22:52.9,65642
22:52.9,65642
22:52.9,65650
22:52.9,65636
22:52.9,65644
22:52.9,65648
22:52.9,65648
22:52.9,65640
22:52.9,65650
22:52.9,65655
22:52.9,65647
22:52.9,65647
22:52.9,65661
22:52.9,65656
22:52.9,65656
22:52.9,65671
22:52.9,65671
22:52.9,65673
22:52.9,65668
22:52.9,65665
22:52.9,65662
22:52.9,65662
22:52.9,65674
22:52.9,65671
22:52.9,65673
22:52.9,65676
22:52.9,65676
22:53.0,65696
22:53.0,65688
22:53.0,65686
22:53.0,65690
22:53.0,65690
22:53.0,65700
22:53.0,65700
22:53.0,65702
22:53.0,65703
22:53.0,65703
22:53.0,65720
22:53.0,65719
22:53.0,65705
22:53.0,65736
22:53.0,65736
22:53.0,65715
22:53.0,65724
22:53.0,65726
22:53.0,65726
22:53.0,65723
22:53.0,65734
22:53.0,65741
22:53.0,65748
22:53.0,65748
22:53.0,65748
22:53.0,65743
22:53.0,65744
22:53.0,65751
22:53.0,65751
22:53.0,65753
22:53.0,65759
22:53.0,65756
22:53.0,65762
22:53.0,65762
22:53.0,65757
22:53.0,65762
22:53.0,65778
22:53.0,65767
22:53.0,65767
22:53.0,65780
22:53.0,65790
22:53.0,65792
22:53.0,65778
22:53.0,65778
22:53.0,65798
22:53.0,65797
22:53.0,65804
22:53.0,65795
22:53.0,65795
22:53.1,65815
22:53.1,65812
22:53.1,65820
22:53.1,65822
22:53.1,65822
22:53.1,65825
22:53.1,65824
22:53.1,65816
22:53.1,65831
22:53.1,65831
22:53.1,65836
22:53.1,65835
22:53.1,65829
22:53.1,65829
22:53.1,65840
22:53.1,65816
22:53.1,65809
22:53.1,65805
22:53.1,65805
22:53.1,65811
22:53.1,65799
22:53.1,65792
22:53.1,65777
22:53.1,65777
22:53.1,65777
22:53.1,65767
22:53.1,65772
22:53.1,65752
22:53.1,65752
22:53.1,65745
22:53.1,65731
22:53.1,65734
22:53.1,65717
22:53.1,65717
22:53.1,65712
22:53.1,65706
22:53.1,65692
22:53.1,65673
22:53.1,65673
22:53.1,65682
22:53.1,65686
22:53.1,65681
22:53.1,65670
22:53.1,65670
22:53.1,65664
22:53.1,65647
22:53.1,65644
22:53.1,65633
22:53.1,65633
22:53.1,65626
22:53.1,65623
22:53.2,65625
22:53.2,65620
22:53.2,65620
22:53.2,65605
22:53.2,65603
22:53.2,65606
22:53.2,65608
22:53.2,65608
22:53.2,65602
22:53.2,65599
22:53.2,65594
22:53.2,65594
22:53.2,65601
22:53.2,65604
22:53.2,65595
22:53.2,65586
22:53.2,65586
22:53.2,65600
22:53.2,65592
22:53.2,65586
22:53.2,65581
22:53.2,65581
22:53.2,65590
22:53.2,65592
22:53.2,65595
22:53.2,65567
22:53.2,65567
22:53.2,65589
22:53.2,65587
22:53.2,65573
22:53.2,65569
22:53.2,65569
22:53.2,65568
22:53.2,65589
22:53.2,65591
22:53.2,65571
22:53.2,65571
22:53.2,65588
22:53.2,65584
22:53.2,65603
22:53.2,65587
22:53.2,65587
22:53.2,65590
22:53.2,65593
22:53.2,65597
22:53.2,65601
22:53.2,65601
22:53.2,65595
22:53.2,65597
22:53.2,65605
22:53.3,65600
22:53.3,65600
22:53.3,65602
22:53.3,65600
22:53.3,65613
22:53.3,65613
22:53.3,65619
22:53.3,65612
22:53.3,65608
22:53.3,65619
22:53.3,65619
22:53.3,65632
22:53.3,65628
22:53.3,65623
22:53.3,65615
22:53.3,65615
22:53.3,65630
22:53.3,65634
22:53.3,65651
22:53.3,65636
22:53.3,65636
22:53.3,65645
22:53.3,65652
22:53.3,65644
22:53.3,65646
22:53.3,65646
22:53.3,65663
22:53.3,65666
22:53.3,65660
22:53.3,65653
22:53.3,65653
22:53.3,65658
22:53.3,65683
22:53.3,65691
22:53.3,65692
22:53.3,65692
22:53.3,65696
22:53.3,65696
22:53.3,65704
22:53.3,65690
22:53.3,65690
22:53.3,65698
22:53.3,65707
22:53.3,65713
22:53.3,65714
22:53.3,65714
22:53.3,65729
22:53.3,65729
22:53.3,65730
22:53.3,65745
22:53.4,65745
22:53.4,65739
22:53.4,65745
22:53.4,65764
22:53.4,65764
22:53.4,65759
22:53.4,65761
22:53.4,65764
22:53.4,65763
22:53.4,65763
22:53.4,65775
22:53.4,65767
22:53.4,65784
22:53.4,65782
22:53.4,65782
22:53.4,65794
22:53.4,65788
22:53.4,65798
22:53.4,65794
22:53.4,65794
22:53.4,65794
22:53.4,65808
22:53.4,65808
22:53.4,65803
22:53.4,65803
22:53.4,65799
22:53.4,65817
22:53.4,65814
22:53.4,65805
22:53.4,65805
22:53.4,65814
22:53.4,65813
22:53.4,65821
22:53.4,65813
22:53.4,65813
22:53.4,65823
22:53.4,65821
22:53.4,65832
22:53.4,65829
22:53.4,65829
22:53.4,65819
22:53.4,65836
22:53.4,65831
22:53.4,65841
22:53.4,65841
22:53.4,65836
22:53.4,65840
22:53.4,65848
22:53.4,65848
22:53.4,65850
22:53.5,65842
22:53.5,65848
22:53.5,65855
22:53.5,65855
22:53.5,65862
22:53.5,65858
22:53.5,65857
22:53.5,65862
22:53.5,65862
22:53.5,65865
22:53.5,65867
22:53.5,65871
22:53.5,65871
22:53.5,65871
22:53.5,65870
22:53.5,65882
22:53.5,65880
22:53.5,65878
22:53.5,65878
22:53.5,65892
22:53.5,65895
22:53.5,65897
22:53.5,65878
22:53.5,65878
22:53.5,65904
22:53.5,65904
22:53.5,65896
22:53.5,65892
22:53.5,65892
22:53.5,65909
22:53.5,65904
22:53.5,65908
22:53.5,65909
22:53.5,65909
22:53.5,65914
22:53.5,65919
22:53.5,65913
22:53.5,65927
22:53.5,65927
22:53.5,65911
22:53.5,65917
22:53.5,65928
22:53.5,65928
22:53.5,65940
22:53.5,65925
22:53.5,65932
22:53.5,65932
22:53.5,65932
22:53.5,65945
22:53.5,65927
22:53.6,65925
22:53.6,65934
22:53.6,65934
22:53.6,65949
22:53.6,65943
22:53.6,65936
22:53.6,65940
22:53.6,65940
22:53.6,65948
22:53.6,65940
22:53.6,65947
22:53.6,65957
22:53.6,65957
22:53.6,65960
22:53.6,65957
22:53.6,65961
22:53.6,65953
22:53.6,65953
22:53.6,65958
22:53.6,65958
22:53.6,65955
22:53.6,65952
22:53.6,65952
22:53.6,65959
22:53.6,65964
22:53.6,65964
22:53.6,65976
22:53.6,65976
22:53.6,65965
22:53.6,65961
22:53.6,65975
22:53.6,65974
22:53.6,65974
22:53.6,65969
22:53.6,65969
22:53.6,65965
22:53.6,65983
22:53.6,65983
22:53.6,65972
22:53.6,65976
22:53.6,65978
22:53.6,65978
22:53.6,65988
22:53.6,65990
22:53.6,65983
22:53.6,65991
22:53.6,65991
22:53.6,65978
22:53.6,65982
22:53.6,65975
22:53.7,65976
22:53.7,65976
22:53.7,65949
22:53.7,65949
22:53.7,65947
22:53.7,65942
22:53.7,65942
22:53.7,65934
22:53.7,65935
22:53.7,65941
22:53.7,65917
22:53.7,65917
22:53.7,65921
22:53.7,65909
22:53.7,65909
22:53.7,65886
22:53.7,65886
22:53.7,65885
22:53.7,65873
22:53.7,65882
22:53.7,65865
22:53.7,65865
22:53.7,65859
22:53.7,65862
22:53.7,65853
22:53.7,65844
22:53.7,65844
22:53.7,65845
22:53.7,65836
22:53.7,65837
22:53.7,65831
22:53.7,65831
22:53.7,65833
22:53.7,65814
22:53.7,65816
22:53.7,65816
22:53.7,65824
22:53.7,65796
22:53.7,65813
22:53.7,65814
22:53.7,65814
22:53.7,65812
22:53.7,65806
22:53.7,65818
22:53.7,65803
22:53.7,65803
22:53.7,65812
22:53.7,65802
22:53.7,65803
22:53.7,65797
22:53.8,65797
22:53.8,65807
22:53.8,65813
22:53.8,65809
22:53.8,65798
22:53.8,65798
22:53.8,65828
22:53.8,65815
22:53.8,65820
22:53.8,65795
22:53.8,65795
22:53.8,65813
22:53.8,65818
22:53.8,65816
22:53.8,65802
22:53.8,65802
22:53.8,65816
22:53.8,65825
22:53.8,65818
22:53.8,65828
22:53.8,65828
22:53.8,65823
22:53.8,65832
22:53.8,65822
22:53.8,65851
22:53.8,65851
22:53.8,65847
22:53.8,65849
22:53.8,65854
22:53.8,65852
22:53.8,65852
22:53.8,65842
22:53.8,65849
22:53.8,65849
22:53.8,65849
22:53.8,65853
22:53.8,65853
22:53.8,65853
22:53.8,65858
22:53.8,65858
22:53.8,65845
22:53.8,65856
22:53.8,65853
22:53.8,65854
22:53.8,65854
22:53.8,65857
22:53.8,65851
22:53.8,65862
22:53.8,65857
22:53.8,65857
22:53.9,65856
22:53.9,65847
22:53.9,65867
22:53.9,65866
22:53.9,65866
22:53.9,65864
22:53.9,65867
22:53.9,65879
22:53.9,65873
22:53.9,65873
22:53.9,65890
22:53.9,65881
22:53.9,65897
22:53.9,65885
22:53.9,65885
22:53.9,65883
22:53.9,65888
22:53.9,65912
22:53.9,65900
22:53.9,65900
22:53.9,65926
22:53.9,65912
22:53.9,65926
22:53.9,65922
22:53.9,65922
22:53.9,65917
22:53.9,65916
22:53.9,65916
22:53.9,65916
22:53.9,65938
22:53.9,65935
22:53.9,65920
22:53.9,65948
22:53.9,65948
22:53.9,65946
22:53.9,65939
22:53.9,65940
22:53.9,65946
22:53.9,65946
22:53.9,65952
22:53.9,65950
22:53.9,65964
22:53.9,65950
22:53.9,65950
22:53.9,65954
22:53.9,65957
22:53.9,65960
22:53.9,65948
22:53.9,65948
22:53.9,65946
22:54.0,65965
22:54.0,65960
22:54.0,65957
22:54.0,65957
22:54.0,65958
22:54.0,65948
22:54.0,65969
22:54.0,65956
22:54.0,65956
22:54.0,65971
22:54.0,65971
22:54.0,65965
22:54.0,65947
22:54.0,65947
22:54.0,65966
22:54.0,65968
22:54.0,65970
22:54.0,65966
22:54.0,65966
22:54.0,65965
22:54.0,65979
22:54.0,65971
22:54.0,65980
22:54.0,65980
22:54.0,65967
22:54.0,65970
22:54.0,65969
22:54.0,65969
22:54.0,65985
22:54.0,65962
22:54.0,65970
22:54.0,65962
22:54.0,65962
22:54.0,65978
22:54.0,65970
22:54.0,65965
22:54.0,65967
22:54.0,65967
22:54.0,65980
22:54.0,65979
22:54.0,65968
22:54.0,65965
22:54.0,65965
22:54.0,65976
22:54.0,65963
22:54.0,65971
22:54.0,65967
22:54.0,65967
22:54.0,65969
22:54.0,65972
22:54.1,65970
22:54.1,65978
22:54.1,65978
22:54.1,65967
22:54.1,65967
22:54.1,65954
22:54.1,65967
22:54.1,65967
22:54.1,65963
22:54.1,65965
22:54.1,65956
22:54.1,65971
22:54.1,65971
22:54.1,65966
22:54.1,65985
22:54.1,65969
22:54.1,65972
22:54.1,65972
22:54.1,65972
22:54.1,65972
22:54.1,65961
22:54.1,65963
22:54.1,65963
22:54.1,65958
22:54.1,65969
22:54.1,65976
22:54.1,65976
22:54.1,65959
22:54.1,65966
22:54.1,65967
22:54.1,65963
22:54.1,65963
22:54.1,65976
22:54.1,65972
22:54.1,65975
22:54.1,65967
22:54.1,65967
22:54.1,65954
22:54.1,65963
22:54.1,65974
22:54.1,65970
22:54.1,65970
22:54.1,65972
22:54.1,65973
22:54.1,65971
22:54.1,65961
22:54.1,65961
22:54.1,65969
22:54.1,65969
22:54.1,65967
22:54.2,65962
22:54.2,65962
22:54.2,65966
22:54.2,65965
22:54.2,65961
22:54.2,65967
22:54.2,65967
22:54.2,65974
22:54.2,65966
22:54.2,65971
22:54.2,65970
22:54.2,65970
22:54.2,65973
22:54.2,65968
22:54.2,65973
22:54.2,65980
22:54.2,65980
22:54.2,65982
22:54.2,65991
22:54.2,65975
22:54.2,65975
22:54.2,65996
22:54.2,65981
22:54.2,65985
22:54.2,65991
22:54.2,65991
22:54.2,66005
22:54.2,65990
22:54.2,66004
22:54.2,65992
22:54.2,65992
22:54.2,66010
22:54.2,66010
22:54.2,66007
22:54.2,66006
22:54.2,66006
22:54.2,66015
22:54.2,66013
22:54.2,66026
22:54.2,66018
22:54.2,66018
22:54.2,66019
22:54.2,66042
22:54.2,66034
22:54.2,66017
22:54.2,66017
22:54.2,66030
22:54.2,66028
22:54.2,66034
22:54.2,66010
22:54.3,66010
22:54.3,66025
22:54.3,66027
22:54.3,66011
22:54.3,66020
22:54.3,66020
22:54.3,65984
22:54.3,66015
22:54.3,66002
22:54.3,65999
22:54.3,65999
22:54.3,65991
22:54.3,65979
22:54.3,65958
22:54.3,65988
22:54.3,65988
22:54.3,65974
22:54.3,65972
22:54.3,65967
22:54.3,65967
22:54.3,65960
22:54.3,65954
22:54.3,65946
22:54.3,65944
22:54.3,65944
22:54.3,65946
22:54.3,65926
22:54.3,65918
22:54.3,65921
22:54.3,65921
22:54.3,65927
22:54.3,65923
22:54.3,65920
22:54.3,65911
22:54.3,65911
22:54.3,65901
22:54.3,65891
22:54.3,65905
22:54.3,65896
22:54.3,65896
22:54.3,65906
22:54.3,65910
22:54.3,65902
22:54.3,65892
22:54.3,65892
22:54.3,65903
22:54.3,65897
22:54.3,65885
22:54.3,65892
22:54.3,65892
22:54.4,65899
22:54.4,65900
22:54.4,65900
22:54.4,65912
22:54.4,65912
22:54.4,65899
22:54.4,65899
22:54.4,65899
22:54.4,65913
22:54.4,65913
22:54.4,65919
22:54.4,65907
22:54.4,65914
22:54.4,65914
22:54.4,65921
22:54.4,65907
22:54.4,65913
22:54.4,65913
22:54.4,65913
22:54.4,65928
22:54.4,65926
22:54.4,65916
22:54.4,65919
22:54.4,65919
22:54.4,65922
22:54.4,65927
22:54.4,65929
22:54.4,65932
22:54.4,65932
22:54.4,65931
22:54.4,65933
22:54.4,65931
22:54.4,65933
22:54.4,65933
22:54.4,65938
22:54.4,65932
22:54.4,65942
22:54.4,65932
22:54.4,65932
22:54.4,65943
22:54.4,65954
22:54.4,65950
22:54.4,65939
22:54.4,65939
22:54.4,65957
22:54.4,65958
22:54.4,65961
22:54.4,65961
22:54.4,65961
22:54.4,65960
22:54.5,65972
22:54.5,65980
22:54.5,65974
22:54.5,65974
22:54.5,65973
22:54.5,65976
22:54.5,65971
22:54.5,65971
22:54.5,65990
22:54.5,65981
22:54.5,65980
22:54.5,65980
22:54.5,65980
22:54.5,65987
22:54.5,65994
22:54.5,65994
22:54.5,65986
22:54.5,65986
22:54.5,66004
22:54.5,66007
22:54.5,65998
22:54.5,66006
22:54.5,66006
22:54.5,66005
22:54.5,66012
22:54.5,66011
22:54.5,66000
22:54.5,66000
22:54.5,65997
22:54.5,66006
22:54.5,66001
22:54.5,65996
22:54.5,65996
22:54.5,65999
22:54.5,66005
22:54.5,66000
22:54.5,65997
22:54.5,65997
22:54.5,65994
22:54.5,66015
22:54.5,65989
22:54.5,65996
22:54.5,65996
22:54.5,65991
22:54.5,65986
22:54.5,65995
22:54.5,65989
22:54.5,65989
22:54.5,65996
22:54.5,65985
22:54.6,65990
22:54.6,65984
22:54.6,65984
22:54.6,65985
22:54.6,65988
22:54.6,65982
22:54.6,65982
22:54.6,65989
22:54.6,65992
22:54.6,65985
22:54.6,65983
22:54.6,65983
22:54.6,65980
22:54.6,65980
22:54.6,65972
22:54.6,65975
22:54.6,65975
22:54.6,65993
22:54.6,65985
22:54.6,65977
22:54.6,65976
22:54.6,65976
22:54.6,65974
22:54.6,65975
22:54.6,65982
22:54.6,65980
22:54.6,65980
22:54.6,65989
22:54.6,65984
22:54.6,65984
22:54.6,65966
22:54.6,65966
22:54.6,65986
22:54.6,65967
22:54.6,65980
22:54.6,65978
22:54.6,65978
22:54.6,65981
22:54.6,65987
22:54.6,65970
22:54.6,65990
22:54.6,65990
22:54.6,65974
22:54.6,65987
22:54.6,65994
22:54.6,65993
22:54.6,65993
22:54.6,65989
22:54.6,65978
22:54.6,65982
22:54.7,65982
22:54.7,66000
22:54.7,65982
22:54.7,65982
22:54.7,65991
22:54.7,65991
22:54.7,65998
22:54.7,66001
22:54.7,65994
22:54.7,65992
22:54.7,65992
22:54.7,65992
22:54.7,65994
22:54.7,66009
22:54.7,66002
22:54.7,66002
22:54.7,66012
22:54.7,66017
22:54.7,66030
22:54.7,66012
22:54.7,66012
22:54.7,66021
22:54.7,66016
22:54.7,66027
22:54.7,66020
22:54.7,66020
22:54.7,66023
22:54.7,66030
22:54.7,66031
22:54.7,66028
22:54.7,66028
22:54.7,66033
22:54.7,66048
22:54.7,66047
22:54.7,66051
22:54.7,66051
22:54.7,66046
22:54.7,66062
22:54.7,66050
22:54.7,66060
22:54.7,66060
22:54.7,66058
22:54.7,66069
22:54.7,66058
22:54.7,66065
22:54.7,66065
22:54.7,66058
22:54.7,66059
22:54.7,66071
22:54.7,66071
22:54.8,66087
22:54.8,66071
22:54.8,66080
22:54.8,66080
22:54.8,66080
22:54.8,66090
22:54.8,66094
22:54.8,66093
22:54.8,66092
22:54.8,66092
22:54.8,66093
22:54.8,66101
22:54.8,66098
22:54.8,66095
22:54.8,66095
22:54.8,66102
22:54.8,66106
22:54.8,66111
22:54.8,66092
22:54.8,66092
22:54.8,66113
22:54.8,66112
22:54.8,66119
22:54.8,66113
22:54.8,66113
22:54.8,66119
22:54.8,66133
22:54.8,66126
22:54.8,66119
22:54.8,66119
22:54.8,66130
22:54.8,66141
22:54.8,66135
22:54.8,66140
22:54.8,66140
22:54.8,66147
22:54.8,66145
22:54.8,66141
22:54.8,66153
22:54.8,66153
22:54.8,66139
22:54.8,66131
22:54.8,66134
22:54.8,66134
22:54.8,66131
22:54.8,66115
22:54.8,66106
22:54.8,66107
22:54.8,66107
22:54.8,66103
22:54.9,66085
22:54.9,66080
22:54.9,66075
22:54.9,66075
22:54.9,66059
22:54.9,66058
22:54.9,66053
22:54.9,66045
22:54.9,66045
22:54.9,66041
22:54.9,66022
22:54.9,66020
22:54.9,66011
22:54.9,66011
22:54.9,66013
22:54.9,66004
22:54.9,66004
22:54.9,65995
22:54.9,65995
22:54.9,65997
22:54.9,65992
22:54.9,65984
22:54.9,65967
22:54.9,65967
22:54.9,65987
22:54.9,65983
22:54.9,65985
22:54.9,65962
22:54.9,65962
22:54.9,65962
22:54.9,65966
22:54.9,65971
22:54.9,65966
22:54.9,65966
22:54.9,65965
22:54.9,65972
22:54.9,65959
22:54.9,65976
22:54.9,65976
22:54.9,65959
22:54.9,65972
22:54.9,65964
22:54.9,65964
22:54.9,65980
22:54.9,65970
22:54.9,65980
22:54.9,65972
22:54.9,65972
22:54.9,65970
22:54.9,65980
22:55.0,65975
22:55.0,65979
22:55.0,65979
22:55.0,65978
22:55.0,65967
22:55.0,65984
22:55.0,65977
22:55.0,65977
22:55.0,65981
22:55.0,65978
22:55.0,65976
22:55.0,65986
22:55.0,65986
22:55.0,65987
22:55.0,66006
22:55.0,65998
22:55.0,65987
22:55.0,65987
22:55.0,65990
22:55.0,65995
22:55.0,65995
22:55.0,66005
22:55.0,66005
22:55.0,66002
22:55.0,65992
22:55.0,65998
22:55.0,65994
22:55.0,65994
22:55.0,65992
22:55.0,65999
22:55.0,65993
22:55.0,66002
22:55.0,66002
22:55.0,65992
22:55.0,65987
22:55.0,65990
22:55.0,65990
22:55.0,65999
22:55.0,65986
22:55.0,65976
22:55.0,65993
22:55.0,65993
22:55.0,65999
22:55.0,65992
22:55.0,65985
22:55.0,65991
22:55.0,65991
22:55.0,65999
22:55.0,65997
22:55.0,65994
22:55.1,65993
22:55.1,65993
22:55.1,65981
22:55.1,65987
22:55.1,65984
22:55.1,65979
22:55.1,65979
22:55.1,65991
22:55.1,65987
22:55.1,65992
22:55.1,65979
22:55.1,65979
22:55.1,65983
22:55.1,65989
22:55.1,65991
22:55.1,65975
22:55.1,65975
22:55.1,65991
22:55.1,65995
22:55.1,66006
22:55.1,65989
22:55.1,65989
22:55.1,65989
22:55.1,65985
22:55.1,65995
22:55.1,66012
22:55.1,66012
22:55.1,65982
22:55.1,65995
22:55.1,65997
22:55.1,66003
22:55.1,66003
22:55.1,65988
22:55.1,65993
22:55.1,65992
22:55.1,65992
22:55.1,66004
22:55.1,65995
22:55.1,65997
22:55.1,66002
22:55.1,66002
22:55.1,66019
22:55.1,66003
22:55.1,65998
22:55.1,66004
22:55.1,66004
22:55.1,65995
22:55.1,66005
22:55.1,65998
22:55.1,65997
22:55.2,65997
22:55.2,66011
22:55.2,66018
22:55.2,66005
22:55.2,66009
22:55.2,66009
22:55.2,66028
22:55.2,66015
22:55.2,66001
22:55.2,66004
22:55.2,66004
22:55.2,66007
22:55.2,66002
22:55.2,66008
22:55.2,66008
22:55.2,66008
22:55.2,66012
22:55.2,66016
22:55.2,66007
22:55.2,66017
22:55.2,66017
22:55.2,66019
22:55.2,66023
22:55.2,66024
22:55.2,66032
22:55.2,66032
22:55.2,66023
22:55.2,66022
22:55.2,66035
22:55.2,66028
22:55.2,66028
22:55.2,66037
22:55.2,66042
22:55.2,66037
22:55.2,66037
22:55.2,66045
22:55.2,66031
22:55.2,66041
22:55.2,66037
22:55.2,66037
22:55.2,66051
22:55.2,66048
22:55.2,66051
22:55.2,66051
22:55.2,66051
22:55.2,66042
22:55.2,66056
22:55.2,66054
22:55.2,66054
22:55.3,66054
22:55.3,66059
22:55.3,66070
22:55.3,66061
22:55.3,66051
22:55.3,66051
22:55.3,66064
22:55.3,66070
22:55.3,66063
22:55.3,66063
22:55.3,66063
22:55.3,66073
22:55.3,66076
22:55.3,66074
22:55.3,66075
22:55.3,66075
22:55.3,66084
22:55.3,66081
22:55.3,66089
22:55.3,66092
22:55.3,66092
22:55.3,66086
22:55.3,66101
22:55.3,66104
22:55.3,66111
22:55.3,66111
22:55.3,66103
22:55.3,66109
22:55.3,66100
22:55.3,66100
22:55.3,66127
22:55.3,66113
22:55.3,66122
22:55.3,66130
22:55.3,66130
22:55.3,66129
22:55.3,66134
22:55.3,66126
22:55.3,66118
22:55.3,66118
22:55.3,66129
22:55.3,66133
22:55.3,66144
22:55.3,66137
22:55.3,66137
22:55.3,66137
22:55.3,66142
22:55.3,66148
22:55.3,66127
22:55.3,66127
22:55.3,66130
22:55.4,66150
22:55.4,66155
22:55.4,66138
22:55.4,66138
22:55.4,66153
22:55.4,66161
22:55.4,66168
22:55.4,66159
22:55.4,66159
22:55.4,66160
22:55.4,66164
22:55.4,66155
22:55.4,66146
22:55.4,66146
22:55.4,66168
22:55.4,66173
22:55.4,66181
22:55.4,66175
22:55.4,66175
22:55.4,66188
22:55.4,66172
22:55.4,66190
22:55.4,66186
22:55.4,66186
22:55.4,66182
22:55.4,66185
22:55.4,66187
22:55.4,66187
22:55.4,66193
22:55.4,66188
22:55.4,66190
22:55.4,66182
22:55.4,66182
22:55.4,66189
22:55.4,66188
22:55.4,66176
22:55.4,66164
22:55.4,66164
22:55.4,66161
22:55.4,66155
22:55.4,66147
22:55.4,66136
22:55.4,66136
22:55.4,66125
22:55.4,66116
22:55.4,66127
22:55.4,66099
22:55.4,66099
22:55.4,66095
22:55.4,66094
22:55.5,66084
22:55.5,66082
22:55.5,66082
22:55.5,66063
22:55.5,66064
22:55.5,66048
22:55.5,66039
22:55.5,66039
22:55.5,66039
22:55.5,66030
22:55.5,66024
22:55.5,66014
22:55.5,66014
22:55.5,66016
22:55.5,66006
22:55.5,66002
22:55.5,66013
22:55.5,66013
22:55.5,65994
22:55.5,65995
22:55.5,65988
22:55.5,65988
22:55.5,65988
22:55.5,65980
22:55.5,65974
22:55.5,65979
22:55.5,65979
22:55.5,65964
22:55.5,65982
22:55.5,65969
22:55.5,65962
22:55.5,65962
22:55.5,65969
22:55.5,65966
22:55.5,65962
22:55.5,65963
22:55.5,65963
22:55.5,65961
22:55.5,65962
22:55.5,65967
22:55.5,65952
22:55.5,65952
22:55.5,65962
22:55.5,65966
22:55.5,65961
22:55.5,65953
22:55.5,65953
22:55.5,65968
22:55.5,65967
22:55.5,65958
22:55.6,65952
22:55.6,65952
22:55.6,65963
22:55.6,65960
22:55.6,65961
22:55.6,65959
22:55.6,65959
22:55.6,65970
22:55.6,65968
22:55.6,65957
22:55.6,65963
22:55.6,65963
22:55.6,65964
22:55.6,65965
22:55.6,65958
22:55.6,65977
22:55.6,65977
22:55.6,65961
22:55.6,65957
22:55.6,65961
22:55.6,65961
22:55.6,65980
22:55.6,65970
22:55.6,65959
22:55.6,65953
22:55.6,65953
22:55.6,65963
22:55.6,65953
22:55.6,65956
22:55.6,65959
22:55.6,65959
22:55.6,65970
22:55.6,65953
22:55.6,65949
22:55.6,65950
22:55.6,65950
22:55.6,65945
22:55.6,65958
22:55.6,65959
22:55.6,65949
22:55.6,65949
22:55.6,65960
22:55.6,65961
22:55.6,65964
22:55.6,65956
22:55.6,65956
22:55.6,65957
22:55.6,65958
22:55.6,65965
22:55.6,65952
22:55.7,65952
22:55.7,65966
22:55.7,65967
22:55.7,65969
22:55.7,65961
22:55.7,65961
22:55.7,65964
22:55.7,65974
22:55.7,65978
22:55.7,65970
22:55.7,65970
22:55.7,65986
22:55.7,65974
22:55.7,65990
22:55.7,65984
22:55.7,65984
22:55.7,65993
22:55.7,65987
22:55.7,65981
22:55.7,65981
22:55.7,66000
22:55.7,65998
22:55.7,66004
22:55.7,66002
22:55.7,66002
22:55.7,66016
22:55.7,66008
22:55.7,66006
22:55.7,66000
22:55.7,66000
22:55.7,66005
22:55.7,66027
22:55.7,66013
22:55.7,66004
22:55.7,66004
22:55.7,66017
22:55.7,66016
22:55.7,66014
22:55.7,66012
22:55.7,66012
22:55.7,66025
22:55.7,66014
22:55.7,66033
22:55.7,66027
22:55.7,66027
22:55.7,66020
22:55.7,66023
22:55.7,66023
22:55.7,66015
22:55.7,66015
22:55.8,66026
22:55.8,66032
22:55.8,66017
22:55.8,66031
22:55.8,66031
22:55.8,66027
22:55.8,66021
22:55.8,66047
22:55.8,66034
22:55.8,66034
22:55.8,66052
22:55.8,66027
22:55.8,66039
22:55.8,66053
22:55.8,66053
22:55.8,66045
22:55.8,66056
22:55.8,66049
22:55.8,66049
22:55.8,66062
22:55.8,66057
22:55.8,66059
22:55.8,66075
22:55.8,66075
22:55.8,66057
22:55.8,66059
22:55.8,66055
22:55.8,66055
22:55.8,66055
22:55.8,66059
22:55.8,66061
22:55.8,66059
22:55.8,66064
22:55.8,66064
22:55.8,66067
22:55.8,66057
22:55.8,66077
22:55.8,66066
22:55.8,66066
22:55.8,66074
22:55.8,66073
22:55.8,66071
22:55.8,66061
22:55.8,66061
22:55.8,66083
22:55.8,66089
22:55.8,66084
22:55.8,66070
22:55.8,66070
22:55.8,66091
22:55.9,66090
22:55.9,66092
22:55.9,66093
22:55.9,66093
22:55.9,66094
22:55.9,66087
22:55.9,66088
22:55.9,66084
22:55.9,66084
22:55.9,66094
22:55.9,66091
22:55.9,66092
22:55.9,66092
22:55.9,66097
22:55.9,66107
22:55.9,66092
22:55.9,66103
22:55.9,66103
22:55.9,66098
22:55.9,66117
22:55.9,66107
22:55.9,66110
22:55.9,66110
22:55.9,66115
22:55.9,66120
22:55.9,66114
22:55.9,66106
22:55.9,66106
22:55.9,66121
22:55.9,66129
22:55.9,66123
22:55.9,66129
22:55.9,66129
22:55.9,66126
22:55.9,66121
22:55.9,66133
22:55.9,66132
22:55.9,66132
22:55.9,66128
22:55.9,66142
22:55.9,66137
22:55.9,66130
22:55.9,66130
22:55.9,66137
22:55.9,66132
22:55.9,66133
22:55.9,66129
22:55.9,66129
22:55.9,66146
22:56.0,66148
22:56.0,66148
22:56.0,66159
22:56.0,66159
22:56.0,66143
22:56.0,66137
22:56.0,66139
22:56.0,66140
22:56.0,66140
22:56.0,66135
22:56.0,66142
22:56.0,66136
22:56.0,66136
22:56.0,66149
22:56.0,66150
22:56.0,66124
22:56.0,66142
22:56.0,66142
22:56.0,66143
22:56.0,66126
22:56.0,66129
22:56.0,66117
22:56.0,66117
22:56.0,66130
22:56.0,66125
22:56.0,66132
22:56.0,66121
22:56.0,66121
22:56.0,66126
22:56.0,66125
22:56.0,66117
22:56.0,66095
22:56.0,66095
22:56.0,66122
22:56.0,66104
22:56.0,66105
22:56.0,66093
22:56.0,66093
22:56.0,66089
22:56.0,66093
22:56.0,66079
22:56.0,66061
22:56.0,66061
22:56.0,66059
22:56.0,66043
22:56.0,66037
22:56.0,66028
22:56.0,66028
22:56.0,66020
22:56.0,66009
22:56.0,66006
22:56.1,65995
22:56.1,65995
22:56.1,65981
22:56.1,65981
22:56.1,65976
22:56.1,65963
22:56.1,65963
22:56.1,65949
22:56.1,65932
22:56.1,65943
22:56.1,65943
22:56.1,65940
22:56.1,65930
22:56.1,65922
22:56.1,65912
22:56.1,65912
22:56.1,65919
22:56.1,65905
22:56.1,65911
22:56.1,65900
22:56.1,65900
22:56.1,65895
22:56.1,65891
22:56.1,65907
22:56.1,65878
22:56.1,65878
22:56.1,65869
22:56.1,65883
22:56.1,65884
22:56.1,65885
22:56.1,65885
22:56.1,65889
22:56.1,65876
22:56.1,65877
22:56.1,65865
22:56.1,65865
22:56.1,65880
22:56.1,65872
22:56.1,65870
22:56.1,65856
22:56.1,65856
22:56.1,65866
22:56.1,65881
22:56.1,65862
22:56.1,65866
22:56.1,65866
22:56.1,65871
22:56.1,65871
22:56.1,65877
22:56.1,65883
22:56.2,65883
22:56.2,65875
22:56.2,65874
22:56.2,65874
22:56.2,65874
22:56.2,65893
22:56.2,65860
22:56.2,65877
22:56.2,65882
22:56.2,65882
22:56.2,65889
22:56.2,65888
22:56.2,65887
22:56.2,65893
22:56.2,65893
22:56.2,65888
22:56.2,65897
22:56.2,65895
22:56.2,65891
22:56.2,65891
22:56.2,65895
22:56.2,65899
22:56.2,65894
22:56.2,65889
22:56.2,65889
22:56.2,65902
22:56.2,65901
22:56.2,65914
22:56.2,65910
22:56.2,65910
22:56.2,65912
22:56.2,65914
22:56.2,65918
22:56.2,65907
22:56.2,65907
22:56.2,65919
22:56.2,65936
22:56.2,65941
22:56.2,65924
22:56.2,65924
22:56.2,65925
22:56.2,65940
22:56.2,65931
22:56.2,65937
22:56.2,65937
22:56.2,65943
22:56.2,65947
22:56.2,65951
22:56.2,65958
22:56.2,65958
22:56.3,65949
22:56.3,65955
22:56.3,65965
22:56.3,65965
22:56.3,65970
22:56.3,65964
22:56.3,65975
22:56.3,65970
22:56.3,65970
22:56.3,65977
22:56.3,65987
22:56.3,65978
22:56.3,65986
22:56.3,65986
22:56.3,65982
22:56.3,65986
22:56.3,65992
22:56.3,65981
22:56.3,65981
22:56.3,65998
22:56.3,65994
22:56.3,65994
22:56.3,65984
22:56.3,65984
22:56.3,66001
22:56.3,66004
22:56.3,66008
22:56.3,66017
22:56.3,66017
22:56.3,66007
22:56.3,66020
22:56.3,66019
22:56.3,66017
22:56.3,66017
22:56.3,66026
22:56.3,66019
22:56.3,66021
22:56.3,66015
22:56.3,66015
22:56.3,66017
22:56.3,66017
22:56.3,66017
22:56.3,66032
22:56.3,66032
22:56.3,66030
22:56.3,66027
22:56.3,66015
22:56.3,66038
22:56.3,66038
22:56.3,66040
22:56.4,66041
22:56.4,66032
22:56.4,66032
22:56.4,66037
22:56.4,66037
22:56.4,66035
22:56.4,66029
22:56.4,66029
22:56.4,66036
22:56.4,66036
22:56.4,66030
22:56.4,66052
22:56.4,66052
22:56.4,66038
22:56.4,66046
22:56.4,66053
22:56.4,66027
22:56.4,66027
22:56.4,66036
22:56.4,66038
22:56.4,66031
22:56.4,66042
22:56.4,66042
22:56.4,66043
22:56.4,66044
22:56.4,66046
22:56.4,66064
22:56.4,66064
22:56.4,66057
22:56.4,66045
22:56.4,66039
22:56.4,66043
22:56.4,66043
22:56.4,66044
22:56.4,66038
22:56.4,66031
22:56.4,66033
22:56.4,66033
22:56.4,66043
22:56.4,66058
22:56.4,66033
22:56.4,66049
22:56.4,66049
22:56.4,66041
22:56.4,66038
22:56.4,66040
22:56.4,66040
22:56.4,66039
22:56.4,66033
22:56.4,66034
22:56.5,66029
22:56.5,66029
22:56.5,66031
22:56.5,66022
22:56.5,66036
22:56.5,66039
22:56.5,66039
22:56.5,66035
22:56.5,66031
22:56.5,66032
22:56.5,66024
22:56.5,66024
22:56.5,66030
22:56.5,66037
22:56.5,66037
22:56.5,66030
22:56.5,66030
22:56.5,66027
22:56.5,66042
22:56.5,66033
22:56.5,66032
22:56.5,66032
22:56.5,66030
22:56.5,66046
22:56.5,66028
22:56.5,66018
22:56.5,66018
22:56.5,66036
22:56.5,66036
22:56.5,66040
22:56.5,66037
22:56.5,66037
22:56.5,66051
22:56.5,66034
22:56.5,66045
22:56.5,66044
22:56.5,66044
22:56.5,66055
22:56.5,66049
22:56.5,66050
22:56.5,66050
22:56.5,66050
22:56.5,66054
22:56.5,66057
22:56.5,66057
22:56.5,66057
22:56.5,66059
22:56.5,66049
22:56.5,66066
22:56.5,66048
22:56.6,66048
22:56.6,66071
22:56.6,66063
22:56.6,66062
22:56.6,66062
22:56.6,66062
22:56.6,66080
22:56.6,66058
22:56.6,66067
22:56.6,66063
22:56.6,66063
22:56.6,66065
22:56.6,66064
22:56.6,66064
22:56.6,66071
22:56.6,66071
22:56.6,66068
22:56.6,66070
22:56.6,66079
22:56.6,66068
22:56.6,66068
22:56.6,66073
22:56.6,66082
22:56.6,66080
22:56.6,66080
22:56.6,66080
22:56.6,66089
22:56.6,66094
22:56.6,66084
22:56.6,66104
22:56.6,66104
22:56.6,66066
22:56.6,66090
22:56.6,66095
22:56.6,66099
22:56.6,66099
22:56.6,66086
22:56.6,66079
22:56.6,66090
22:56.6,66090
22:56.6,66079
22:56.6,66080
22:56.6,66068
22:56.6,66061
22:56.6,66061
22:56.6,66048
22:56.6,66042
22:56.6,66039
22:56.6,66024
22:56.6,66024
22:56.7,66032
22:56.7,66023
22:56.7,66018
22:56.7,66008
22:56.7,66008
22:56.7,65998
22:56.7,65992
22:56.7,65981
22:56.7,65982
22:56.7,65982
22:56.7,65971
22:56.7,65970
22:56.7,65954
22:56.7,65948
22:56.7,65948
22:56.7,65952
22:56.7,65943
22:56.7,65944
22:56.7,65918
22:56.7,65918
22:56.7,65932
22:56.7,65935
22:56.7,65933
22:56.7,65916
22:56.7,65916
22:56.7,65921
22:56.7,65922
22:56.7,65912
22:56.7,65912
22:56.7,65912
22:56.7,65904
22:56.7,65901
22:56.7,65895
22:56.7,65902
22:56.7,65902
22:56.7,65904
22:56.7,65903
22:56.7,65904
22:56.7,65904
22:56.7,65903
22:56.7,65901
22:56.7,65911
22:56.7,65907
22:56.7,65907
22:56.7,65910
22:56.7,65902
22:56.7,65898
22:56.7,65909
22:56.7,65909
22:56.7,65904
22:56.8,65911
22:56.8,65911
22:56.8,65904
22:56.8,65904
22:56.8,65917
22:56.8,65922
22:56.8,65926
22:56.8,65902
22:56.8,65902
22:56.8,65927
22:56.8,65915
22:56.8,65916
22:56.8,65920
22:56.8,65920
22:56.8,65933
22:56.8,65933
22:56.8,65940
22:56.8,65931
22:56.8,65931
22:56.8,65926
22:56.8,65944
22:56.8,65945
22:56.8,65952
22:56.8,65952
22:56.8,65950
22:56.8,65954
22:56.8,65970
22:56.8,65963
22:56.8,65963
22:56.8,65960
22:56.8,65954
22:56.8,65978
22:56.8,65978
22:56.8,65967
22:56.8,65969
22:56.8,65958
22:56.8,65954
22:56.8,65954
22:56.8,65976
22:56.8,65971
22:56.8,65967
22:56.8,65971
22:56.8,65971
22:56.8,65977
22:56.8,65973
22:56.8,65977
22:56.8,65958
22:56.8,65958
22:56.8,65975
22:56.8,65970
22:56.9,65971
22:56.9,65967
22:56.9,65967
22:56.9,65984
22:56.9,65991
22:56.9,65988
22:56.9,65980
22:56.9,65980
22:56.9,65989
22:56.9,65984
22:56.9,65998
22:56.9,65982
22:56.9,65982
22:56.9,65987
22:56.9,66008
22:56.9,65989
22:56.9,65994
22:56.9,65994
22:56.9,65997
22:56.9,65996
22:56.9,65999
22:56.9,66000
22:56.9,66000
22:56.9,65994
22:56.9,65993
22:56.9,65990
22:56.9,65991
22:56.9,65991
22:56.9,65987
22:56.9,65992
22:56.9,65987
22:56.9,65987
22:56.9,65985
22:56.9,65983
22:56.9,65984
22:56.9,65978
22:56.9,65978
22:56.9,65980
22:56.9,65976
22:56.9,65964
22:56.9,65972
22:56.9,65972
22:56.9,65990
22:56.9,65979
22:56.9,65969
22:56.9,65973
22:56.9,65973
22:56.9,65976
22:56.9,65969
22:56.9,65973
22:57.0,65950
22:57.0,65950
22:57.0,65972
22:57.0,65962
22:57.0,65964
22:57.0,65958
22:57.0,65958
22:57.0,65956
22:57.0,65966
22:57.0,65956
22:57.0,65949
22:57.0,65949
22:57.0,65954
22:57.0,65956
22:57.0,65948
22:57.0,65954
22:57.0,65954
22:57.0,65945
22:57.0,65958
22:57.0,65959
22:57.0,65961
22:57.0,65961
22:57.0,65953
22:57.0,65957
22:57.0,65956
22:57.0,65956
22:57.0,65957
22:57.0,65968
22:57.0,65961
22:57.0,65957
22:57.0,65957
22:57.0,65970
22:57.0,65961
22:57.0,65961
22:57.0,65961
22:57.0,65961
22:57.0,65960
22:57.0,65955
22:57.0,65967
22:57.0,65965
22:57.0,65965
22:57.0,65967
22:57.0,65979
22:57.0,65980
22:57.0,65967
22:57.0,65967
22:57.0,65977
22:57.0,65973
22:57.0,65974
22:57.0,65974
22:57.1,65974
22:57.1,65973
22:57.1,65978
22:57.1,65987
22:57.1,65970
22:57.1,65970
22:57.1,65997
22:57.1,65990
22:57.1,65984
22:57.1,65987
22:57.1,65987
22:57.1,65997
22:57.1,65997
22:57.1,65999
22:57.1,66012
22:57.1,66012
22:57.1,66007
22:57.1,66011
22:57.1,66004
22:57.1,66018
22:57.1,66018
22:57.1,66026
22:57.1,66020
22:57.1,66025
22:57.1,66025
22:57.1,66038
22:57.1,66038
22:57.1,66025
22:57.1,66042
22:57.1,66042
22:57.1,66048
22:57.1,66049
22:57.1,66044
22:57.1,66044
22:57.1,66044
22:57.1,66056
22:57.1,66054
22:57.1,66054
22:57.1,66058
22:57.1,66058
22:57.1,66053
22:57.1,66069
22:57.1,66076
22:57.1,66088
22:57.1,66088
22:57.1,66075
22:57.1,66078
22:57.1,66087
22:57.1,66071
22:57.1,66071
22:57.2,66075
22:57.2,66086
22:57.2,66091
22:57.2,66083
22:57.2,66083
22:57.2,66095
22:57.2,66102
22:57.2,66101
22:57.2,66100
22:57.2,66100
22:57.2,66108
22:57.2,66103
22:57.2,66111
22:57.2,66120
22:57.2,66120
22:57.2,66113
22:57.2,66114
22:57.2,66125
22:57.2,66128
22:57.2,66128
22:57.2,66117
22:57.2,66126
22:57.2,66150
22:57.2,66150
22:57.2,66144
22:57.2,66126
22:57.2,66130
22:57.2,66139
22:57.2,66139
22:57.2,66148
22:57.2,66142
22:57.2,66131
22:57.2,66138
22:57.2,66138
22:57.2,66134
22:57.2,66137
22:57.2,66125
22:57.2,66128
22:57.2,66128
22:57.2,66105
22:57.2,66116
22:57.2,66084
22:57.2,66095
22:57.2,66095
22:57.2,66081
22:57.2,66070
22:57.2,66067
22:57.2,66053
22:57.2,66053
22:57.2,66050
22:57.3,66035
22:57.3,66037
22:57.3,66026
22:57.3,66026
22:57.3,66022
22:57.3,66018
22:57.3,66000
22:57.3,65992
22:57.3,65992
22:57.3,65992
22:57.3,65985
22:57.3,65967
22:57.3,65965
22:57.3,65965
22:57.3,65953
22:57.3,65959
22:57.3,65954
22:57.3,65954
22:57.3,65943
22:57.3,65940
22:57.3,65933
22:57.3,65931
22:57.3,65931
22:57.3,65928
22:57.3,65916
22:57.3,65926
22:57.3,65915
22:57.3,65915
22:57.3,65915
22:57.3,65907
22:57.3,65909
22:57.3,65908
22:57.3,65908
22:57.3,65903
22:57.3,65909
22:57.3,65900
22:57.3,65889
22:57.3,65889
22:57.3,65915
22:57.3,65904
22:57.3,65901
22:57.3,65908
22:57.3,65908
22:57.3,65906
22:57.3,65899
22:57.3,65904
22:57.3,65887
22:57.3,65887
22:57.3,65900
22:57.3,65901
22:57.4,65890
22:57.4,65917
22:57.4,65917
22:57.4,65911
22:57.4,65899
22:57.4,65898
22:57.4,65903
22:57.4,65903
22:57.4,65892
22:57.4,65904
22:57.4,65901
22:57.4,65899
22:57.4,65899
22:57.4,65897
22:57.4,65891
22:57.4,65902
22:57.4,65902
22:57.4,65899
22:57.4,65899
22:57.4,65891
22:57.4,65887
22:57.4,65887
22:57.4,65902
22:57.4,65903
22:57.4,65901
22:57.4,65904
22:57.4,65904
22:57.4,65897
22:57.4,65908
22:57.4,65899
22:57.4,65888
22:57.4,65888
22:57.4,65905
22:57.4,65902
22:57.4,65909
22:57.4,65896
22:57.4,65896
22:57.4,65894
22:57.4,65896
22:57.4,65904
22:57.4,65887
22:57.4,65887
22:57.4,65902
22:57.4,65899
22:57.4,65895
22:57.4,65891
22:57.4,65891
22:57.4,65893
22:57.4,65897
22:57.5,65902
22:57.5,65904
22:57.5,65904
22:57.5,65889
22:57.5,65899
22:57.5,65912
22:57.5,65901
22:57.5,65901
22:57.5,65900
22:57.5,65898
22:57.5,65896
22:57.5,65910
22:57.5,65910
22:57.5,65907
22:57.5,65896
22:57.5,65910
22:57.5,65910
22:57.5,65910
22:57.5,65907
22:57.5,65910
22:57.5,65896
22:57.5,65896
22:57.5,65906
22:57.5,65898
22:57.5,65906
22:57.5,65892
22:57.5,65892
22:57.5,65907
22:57.5,65895
22:57.5,65907
22:57.5,65887
22:57.5,65887
22:57.5,65919
22:57.5,65910
22:57.5,65910
22:57.5,65903
22:57.5,65903
22:57.5,65908
22:57.5,65914
22:57.5,65912
22:57.5,65892
22:57.5,65892
22:57.5,65912
22:57.5,65904
22:57.5,65900
22:57.5,65910
22:57.5,65910
22:57.5,65907
22:57.5,65905
22:57.5,65902
22:57.5,65912
22:57.6,65912
22:57.6,65920
22:57.6,65917
22:57.6,65916
22:57.6,65923
22:57.6,65923
22:57.6,65899
22:57.6,65917
22:57.6,65914
22:57.6,65914
22:57.6,65921
22:57.6,65914
22:57.6,65921
22:57.6,65924
22:57.6,65924
22:57.6,65920
22:57.6,65914
22:57.6,65929
22:57.6,65943
22:57.6,65943
22:57.6,65936
22:57.6,65929
22:57.6,65931
22:57.6,65925
22:57.6,65925
22:57.6,65930
22:57.6,65932
22:57.6,65942
22:57.6,65939
22:57.6,65939
22:57.6,65947
22:57.6,65949
22:57.6,65958
22:57.6,65942
22:57.6,65942
22:57.6,65949
22:57.6,65944
22:57.6,65966
22:57.6,65957
22:57.6,65957
22:57.6,65975
22:57.6,65950
22:57.6,65970
22:57.6,65972
22:57.6,65972
22:57.6,65972
22:57.6,65972
22:57.6,65977
22:57.6,65986
22:57.6,65986
22:57.7,65979
22:57.7,65987
22:57.7,65990
22:57.7,65990
22:57.7,65995
22:57.7,65996
22:57.7,65995
22:57.7,66000
22:57.7,66000
22:57.7,66008
22:57.7,66016
22:57.7,66003
22:57.7,66008
22:57.7,66008
22:57.7,66011
22:57.7,66012
22:57.7,66016
22:57.7,66013
22:57.7,66013
22:57.7,66022
22:57.7,66027
22:57.7,66026
22:57.7,66018
22:57.7,66018
22:57.7,66030
22:57.7,66038
22:57.7,66039
22:57.7,66040
22:57.7,66040
22:57.7,66041
22:57.7,66046
22:57.7,66048
22:57.7,66045
22:57.7,66045
22:57.7,66047
22:57.7,66044
22:57.7,66060
22:57.7,66052
22:57.7,66052
22:57.7,66057
22:57.7,66075
22:57.7,66069
22:57.7,66080
22:57.7,66080
22:57.7,66065
22:57.7,66069
22:57.7,66069
22:57.7,66080
22:57.7,66080
22:57.7,66081
22:57.8,66079
22:57.8,66067
22:57.8,66067
22:57.8,66084
22:57.8,66079
22:57.8,66090
22:57.8,66088
22:57.8,66088
22:57.8,66080
22:57.8,66091
22:57.8,66099
22:57.8,66101
22:57.8,66101
22:57.8,66106
22:57.8,66116
22:57.8,66105
22:57.8,66094
22:57.8,66094
22:57.8,66110
22:57.8,66112
22:57.8,66121
22:57.8,66097
22:57.8,66097
22:57.8,66116
22:57.8,66122
22:57.8,66122
22:57.8,66115
22:57.8,66115
22:57.8,66112
22:57.8,66120
22:57.8,66133
22:57.8,66111
22:57.8,66111
22:57.8,66121
22:57.8,66111
22:57.8,66120
22:57.8,66099
22:57.8,66099
22:57.8,66090
22:57.8,66099
22:57.8,66080
22:57.8,66070
22:57.8,66070
22:57.8,66055
22:57.8,66053
22:57.8,66042
22:57.8,66042
22:57.8,66040
22:57.8,66016
22:57.8,66011
22:57.9,65995
22:57.9,65995
22:57.9,65976
22:57.9,65980
22:57.9,65989
22:57.9,65964
22:57.9,65964
22:57.9,65954
22:57.9,65939
22:57.9,65938
22:57.9,65913
22:57.9,65913
22:57.9,65919
22:57.9,65915
22:57.9,65899
22:57.9,65882
22:57.9,65882
22:57.9,65875
22:57.9,65865
22:57.9,65868
22:57.9,65846
22:57.9,65846
22:57.9,65846
22:57.9,65839
22:57.9,65828
22:57.9,65817
22:57.9,65817
22:57.9,65823
22:57.9,65813
22:57.9,65814
22:57.9,65798
22:57.9,65798
22:57.9,65790
22:57.9,65788
22:57.9,65784
22:57.9,65788
22:57.9,65788
22:57.9,65777
22:57.9,65770
22:57.9,65765
22:57.9,65769
22:57.9,65769
22:57.9,65770
22:57.9,65763
22:57.9,65757
22:57.9,65757
22:57.9,65776
22:57.9,65766
22:57.9,65756
22:57.9,65743
22:58.0,65743
22:58.0,65738
22:58.0,65746
22:58.0,65730
22:58.0,65741
22:58.0,65741
22:58.0,65753
22:58.0,65736
22:58.0,65737
22:58.0,65735
22:58.0,65735
22:58.0,65735
22:58.0,65732
22:58.0,65733
22:58.0,65720
22:58.0,65720
22:58.0,65731
22:58.0,65728
22:58.0,65744
22:58.0,65728
22:58.0,65728
22:58.0,65714
22:58.0,65739
22:58.0,65729
22:58.0,65729
22:58.0,65729
22:58.0,65728
22:58.0,65733
22:58.0,65739
22:58.0,65749
22:58.0,65749
22:58.0,65730
22:58.0,65738
22:58.0,65744
22:58.0,65754
22:58.0,65754
22:58.0,65758
22:58.0,65737
22:58.0,65750
22:58.0,65750
22:58.0,65761
22:58.0,65762
22:58.0,65750
22:58.0,65768
22:58.0,65768
22:58.0,65769
22:58.0,65767
22:58.0,65761
22:58.0,65769
22:58.0,65769
22:58.1,65767
22:58.1,65769
22:58.1,65782
22:58.1,65782
22:58.1,65782
22:58.1,65788
22:58.1,65794
22:58.1,65793
22:58.1,65784
22:58.1,65784
22:58.1,65802
22:58.1,65795
22:58.1,65810
22:58.1,65795
22:58.1,65795
22:58.1,65809
22:58.1,65814
22:58.1,65824
22:58.1,65792
22:58.1,65792
22:58.1,65823
22:58.1,65816
22:58.1,65833
22:58.1,65828
22:58.1,65828
22:58.1,65832
22:58.1,65841
22:58.1,65843
22:58.1,65842
22:58.1,65842
22:58.1,65842
22:58.1,65844
22:58.1,65845
22:58.1,65854
22:58.1,65854
22:58.1,65864
22:58.1,65853
22:58.1,65854
22:58.1,65854
22:58.1,65865
22:58.1,65859
22:58.1,65863
22:58.1,65866
22:58.1,65866
22:58.1,65872
22:58.1,65860
22:58.1,65868
22:58.1,65865
22:58.1,65865
22:58.2,65873
22:58.2,65868
22:58.2,65875
22:58.2,65874
22:58.2,65874
22:58.2,65877
22:58.2,65876
22:58.2,65880
22:58.2,65880
22:58.2,65880
22:58.2,65878
22:58.2,65883
22:58.2,65897
22:58.2,65881
22:58.2,65881
22:58.2,65899
22:58.2,65901
22:58.2,65896
22:58.2,65895
22:58.2,65895
22:58.2,65891
22:58.2,65900
22:58.2,65895
22:58.2,65917
22:58.2,65917
22:58.2,65909
22:58.2,65906
22:58.2,65922
22:58.2,65915
22:58.2,65915
22:58.2,65915
22:58.2,65928
22:58.2,65923
22:58.2,65923
22:58.2,65936
22:58.2,65927
22:58.2,65917
22:58.2,65935
22:58.2,65935
22:58.2,65945
22:58.2,65934
22:58.2,65950
22:58.2,65946
22:58.2,65946
22:58.2,65941
22:58.2,65944
22:58.2,65957
22:58.2,65950
22:58.2,65950
22:58.2,65939
22:58.2,65934
22:58.3,65947
22:58.3,65944
22:58.3,65944
22:58.3,65942
22:58.3,65955
22:58.3,65957
22:58.3,65944
22:58.3,65944
22:58.3,65947
22:58.3,65944
22:58.3,65972
22:58.3,65943
22:58.3,65943
22:58.3,65965
22:58.3,65963
22:58.3,65960
22:58.3,65950
22:58.3,65950
22:58.3,65951
22:58.3,65963
22:58.3,65960
22:58.3,65963
22:58.3,65963
22:58.3,65941
22:58.3,65962
22:58.3,65972
22:58.3,65965
22:58.3,65965
22:58.3,65966
22:58.3,65965
22:58.3,65970
22:58.3,65970
22:58.3,65985
22:58.3,65959
22:58.3,65964
22:58.3,65973
22:58.3,65973
22:58.3,65981
22:58.3,65955
22:58.3,65952
22:58.3,65967
22:58.3,65967
22:58.3,65977
22:58.3,65965
22:58.3,65973
22:58.3,65964
22:58.3,65964
22:58.3,65975
22:58.3,65961
22:58.3,65967
22:58.4,65956
22:58.4,65956
22:58.4,65973
22:58.4,65965
22:58.4,65962
22:58.4,65956
22:58.4,65956
22:58.4,65951
22:58.4,65964
22:58.4,65950
22:58.4,65944
22:58.4,65944
22:58.4,65946
22:58.4,65958
22:58.4,65942
22:58.4,65947
22:58.4,65947
22:58.4,65948
22:58.4,65947
22:58.4,65954
22:58.4,65956
22:58.4,65956
22:58.4,65942
22:58.4,65948
22:58.4,65946
22:58.4,65946
22:58.4,65949
22:58.4,65948
22:58.4,65942
22:58.4,65944
22:58.4,65944
22:58.4,65958
22:58.4,65947
22:58.4,65948
22:58.4,65934
22:58.4,65934
22:58.4,65955
22:58.4,65950
22:58.4,65952
22:58.4,65941
22:58.4,65941
22:58.4,65947
22:58.4,65953
22:58.4,65967
22:58.4,65918
22:58.4,65918
22:58.4,65936
22:58.4,65926
22:58.4,65915
22:58.4,65914
22:58.5,65914
22:58.5,65917
22:58.5,65896
22:58.5,65887
22:58.5,65882
22:58.5,65882
22:58.5,65878
22:58.5,65862
22:58.5,65872
22:58.5,65859
22:58.5,65859
22:58.5,65849
22:58.5,65842
22:58.5,65843
22:58.5,65808
22:58.5,65808
22:58.5,65810
22:58.5,65815
22:58.5,65789
22:58.5,65801
22:58.5,65801
22:58.5,65781
22:58.5,65765
22:58.5,65769
22:58.5,65769
22:58.5,65765
22:58.5,65762
22:58.5,65753
22:58.5,65739
22:58.5,65739
22:58.5,65737
22:58.5,65732
22:58.5,65720
22:58.5,65714
22:58.5,65714
22:58.5,65718
22:58.5,65692
22:58.5,65696
22:58.5,65674
22:58.5,65674
22:58.5,65684
22:58.5,65672
22:58.5,65670
22:58.5,65647
22:58.5,65647
22:58.5,65660
22:58.5,65662
22:58.5,65659
22:58.5,65655
22:58.5,65655
22:58.6,65649
22:58.6,65642
22:58.6,65655
22:58.6,65632
22:58.6,65632
22:58.6,65647
22:58.6,65643
22:58.6,65635
22:58.6,65626
22:58.6,65626
22:58.6,65638
22:58.6,65624
22:58.6,65631
22:58.6,65635
22:58.6,65635
22:58.6,65623
22:58.6,65628
22:58.6,65635
22:58.6,65635
22:58.6,65631
22:58.6,65633
22:58.6,65618
22:58.6,65660
22:58.6,65660
22:58.6,65643
22:58.6,65632
22:58.6,65631
22:58.6,65640
22:58.6,65640
22:58.6,65646
22:58.6,65649
22:58.6,65651
22:58.6,65652
22:58.6,65652
22:58.6,65652
22:58.6,65653
22:58.6,65650
22:58.6,65654
22:58.6,65654
22:58.6,65655
22:58.6,65659
22:58.6,65663
22:58.6,65659
22:58.6,65659
22:58.6,65661
22:58.6,65669
22:58.6,65672
22:58.6,65646
22:58.6,65646
22:58.6,65666
22:58.7,65668
22:58.7,65673
22:58.7,65690
22:58.7,65690
22:58.7,65678
22:58.7,65683
22:58.7,65676
22:58.7,65695
22:58.7,65695
22:58.7,65677
22:58.7,65694
22:58.7,65702
22:58.7,65703
22:58.7,65703
22:58.7,65687
22:58.7,65704
22:58.7,65702
22:58.7,65702
22:58.7,65717
22:58.7,65719
22:58.7,65714
22:58.7,65713
22:58.7,65713
22:58.7,65720
22:58.7,65722
22:58.7,65712
22:58.7,65732
22:58.7,65732
22:58.7,65731
22:58.7,65736
22:58.7,65739
22:58.7,65731
22:58.7,65731
22:58.7,65730
22:58.7,65728
22:58.7,65729
22:58.7,65727
22:58.7,65727
22:58.7,65719
22:58.7,65726
22:58.7,65717
22:58.7,65716
22:58.7,65716
22:58.7,65716
22:58.7,65719
22:58.7,65723
22:58.7,65710
22:58.7,65710
22:58.7,65721
22:58.7,65702
22:58.8,65708
22:58.8,65726
22:58.8,65726
22:58.8,65703
22:58.8,65696
22:58.8,65695
22:58.8,65707
22:58.8,65707
22:58.8,65697
22:58.8,65676
22:58.8,65683
22:58.8,65683
22:58.8,65685
22:58.8,65659
22:58.8,65667
22:58.8,65670
22:58.8,65670
22:58.8,65665
22:58.8,65663
22:58.8,65675
22:58.8,65660
22:58.8,65660
22:58.8,65668
22:58.8,65658
22:58.8,65649
22:58.8,65656
22:58.8,65656
22:58.8,65652
22:58.8,65649
22:58.8,65644
22:58.8,65641
22:58.8,65641
22:58.8,65650
22:58.8,65647
22:58.8,65648
22:58.8,65646
22:58.8,65646
22:58.8,65641
22:58.8,65640
22:58.8,65645
22:58.8,65632
22:58.8,65632
22:58.8,65655
22:58.8,65642
22:58.8,65639
22:58.8,65637
22:58.8,65637
22:58.8,65639
22:58.8,65633
22:58.8,65639
22:58.9,65645
22:58.9,65645
22:58.9,65635
22:58.9,65645
22:58.9,65644
22:58.9,65644
22:58.9,65651
22:58.9,65640
22:58.9,65642
22:58.9,65653
22:58.9,65653
22:58.9,65656
22:58.9,65658
22:58.9,65648
22:58.9,65644
22:58.9,65644
22:58.9,65664
22:58.9,65652
22:58.9,65659
22:58.9,65655
22:58.9,65655
22:58.9,65661
22:58.9,65658
22:58.9,65665
22:58.9,65651
22:58.9,65651
22:58.9,65685
22:58.9,65681
22:58.9,65675
22:58.9,65682
22:58.9,65682
22:58.9,65702
22:58.9,65690
22:58.9,65692
22:58.9,65687
22:58.9,65687
22:58.9,65684
22:58.9,65708
22:58.9,65693
22:58.9,65714
22:58.9,65714
22:58.9,65714
22:58.9,65726
22:58.9,65711
22:58.9,65724
22:58.9,65724
22:58.9,65725
22:58.9,65726
22:58.9,65724
22:58.9,65737
22:59.0,65737
22:59.0,65739
22:59.0,65751
22:59.0,65744
22:59.0,65744
22:59.0,65755
22:59.0,65751
22:59.0,65762
22:59.0,65765
22:59.0,65765
22:59.0,65769
22:59.0,65772
22:59.0,65781
22:59.0,65788
22:59.0,65788
22:59.0,65802
22:59.0,65784
22:59.0,65795
22:59.0,65788
22:59.0,65788
22:59.0,65795
22:59.0,65819
22:59.0,65809
22:59.0,65815
22:59.0,65815
22:59.0,65816
22:59.0,65823
22:59.0,65829
22:59.0,65825
22:59.0,65825
22:59.0,65831
22:59.0,65844
22:59.0,65848
22:59.0,65852
22:59.0,65852
22:59.0,65846
22:59.0,65853
22:59.0,65862
22:59.0,65862
22:59.0,65862
22:59.0,65877
22:59.0,65874
22:59.0,65884
22:59.0,65877
22:59.0,65877
22:59.0,65875
22:59.0,65889
22:59.0,65882
22:59.0,65882
22:59.0,65897
22:59.1,65881
22:59.1,65868
22:59.1,65873
22:59.1,65873
22:59.1,65873
22:59.1,65859
22:59.1,65845
22:59.1,65835
22:59.1,65835
22:59.1,65831
22:59.1,65820
22:59.1,65818
22:59.1,65805
22:59.1,65805
22:59.1,65787
22:59.1,65772
22:59.1,65773
22:59.1,65755
22:59.1,65755
22:59.1,65757
22:59.1,65745
22:59.1,65729
22:59.1,65714
22:59.1,65714
22:59.1,65705
22:59.1,65706
22:59.1,65712
22:59.1,65682
22:59.1,65682
22:59.1,65686
22:59.1,65680
22:59.1,65661
22:59.1,65639
22:59.1,65639
22:59.1,65643
22:59.1,65634
22:59.1,65632
22:59.1,65625
22:59.1,65625
22:59.1,65617
22:59.1,65601
22:59.1,65607
22:59.1,65601
22:59.1,65601
22:59.1,65584
22:59.1,65582
22:59.1,65589
22:59.1,65589
22:59.1,65579
22:59.1,65560
22:59.2,65575
22:59.2,65554
22:59.2,65554
22:59.2,65575
22:59.2,65564
22:59.2,65552
22:59.2,65556
22:59.2,65556
22:59.2,65555
22:59.2,65546
22:59.2,65540
22:59.2,65536
22:59.2,65536
22:59.2,65549
22:59.2,65535
22:59.2,65539
22:59.2,65531
22:59.2,65531
22:59.2,65546
22:59.2,65531
22:59.2,65522
22:59.2,65517
22:59.2,65517
22:59.2,65529
22:59.2,65521
22:59.2,65535
22:59.2,65528
22:59.2,65528
22:59.2,65539
22:59.2,65527
22:59.2,65531
22:59.2,65522
22:59.2,65522
22:59.2,65526
22:59.2,65526
22:59.2,65526
22:59.2,65531
22:59.2,65531
22:59.2,65535
22:59.2,65535
22:59.2,65515
22:59.2,65515
22:59.2,65528
22:59.2,65528
22:59.2,65522
22:59.2,65527
22:59.2,65527
22:59.2,65529
22:59.2,65524
22:59.2,65529
22:59.3,65528
22:59.3,65528
22:59.3,65527
22:59.3,65528
22:59.3,65534
22:59.3,65528
22:59.3,65528
22:59.3,65541
22:59.3,65543
22:59.3,65540
22:59.3,65543
22:59.3,65543
22:59.3,65540
22:59.3,65533
22:59.3,65543
22:59.3,65547
22:59.3,65547
22:59.3,65552
22:59.3,65544
22:59.3,65539
22:59.3,65540
22:59.3,65540
22:59.3,65562
22:59.3,65558
22:59.3,65551
22:59.3,65552
22:59.3,65552
22:59.3,65562
22:59.3,65556
22:59.3,65548
22:59.3,65574
22:59.3,65574
22:59.3,65561
22:59.3,65557
22:59.3,65559
22:59.3,65576
22:59.3,65576
22:59.3,65560
22:59.3,65570
22:59.3,65569
22:59.3,65569
22:59.3,65582
22:59.3,65580
22:59.3,65575
22:59.3,65575
22:59.3,65575
22:59.3,65581
22:59.3,65575
22:59.3,65573
22:59.3,65580
22:59.4,65580
22:59.4,65574
22:59.4,65591
22:59.4,65575
22:59.4,65583
22:59.4,65583
22:59.4,65595
22:59.4,65587
22:59.4,65591
22:59.4,65591
22:59.4,65591
22:59.4,65604
22:59.4,65604
22:59.4,65598
22:59.4,65595
22:59.4,65595
22:59.4,65595
22:59.4,65589
22:59.4,65602
22:59.4,65600
22:59.4,65600
22:59.4,65609
22:59.4,65598
22:59.4,65611
22:59.4,65612
22:59.4,65612
22:59.4,65620
22:59.4,65613
22:59.4,65619
22:59.4,65629
22:59.4,65629
22:59.4,65610
22:59.4,65631
22:59.4,65632
22:59.4,65632
22:59.4,65649
22:59.4,65636
22:59.4,65635
22:59.4,65642
22:59.4,65642
22:59.4,65653
22:59.4,65652
22:59.4,65656
22:59.4,65654
22:59.4,65654
22:59.4,65660
22:59.4,65667
22:59.4,65663
22:59.4,65665
22:59.4,65665
22:59.5,65688
22:59.5,65682
22:59.5,65678
22:59.5,65685
22:59.5,65685
22:59.5,65691
22:59.5,65702
22:59.5,65698
22:59.5,65695
22:59.5,65695
22:59.5,65704
22:59.5,65715
22:59.5,65722
22:59.5,65709
22:59.5,65709
22:59.5,65710
22:59.5,65713
22:59.5,65733
22:59.5,65717
22:59.5,65717
22:59.5,65724
22:59.5,65732
22:59.5,65742
22:59.5,65741
22:59.5,65741
22:59.5,65745
22:59.5,65758
22:59.5,65761
22:59.5,65772
22:59.5,65772
22:59.5,65764
22:59.5,65773
22:59.5,65771
22:59.5,65771
22:59.5,65779
22:59.5,65789
22:59.5,65796
22:59.5,65795
22:59.5,65795
22:59.5,65790
22:59.5,65789
22:59.5,65803
22:59.5,65801
22:59.5,65801
22:59.5,65806
22:59.5,65809
22:59.5,65809
22:59.5,65802
22:59.5,65802
22:59.5,65819
22:59.6,65822
22:59.6,65822
22:59.6,65810
22:59.6,65810
22:59.6,65839
22:59.6,65840
22:59.6,65840
22:59.6,65829
22:59.6,65829
22:59.6,65844
22:59.6,65837
22:59.6,65856
22:59.6,65854
22:59.6,65854
22:59.6,65862
22:59.6,65856
22:59.6,65857
22:59.6,65871
22:59.6,65871
22:59.6,65869
22:59.6,65868
22:59.6,65871
22:59.6,65888
22:59.6,65888
22:59.6,65879
22:59.6,65875
22:59.6,65884
22:59.6,65898
22:59.6,65898
22:59.6,65902
22:59.6,65896
22:59.6,65889
22:59.6,65889
22:59.6,65919
22:59.6,65913
22:59.6,65911
22:59.6,65915
22:59.6,65915
22:59.6,65931
22:59.6,65920
22:59.6,65918
22:59.6,65918
22:59.6,65918
22:59.6,65923
22:59.6,65935
22:59.6,65926
22:59.6,65921
22:59.6,65921
22:59.6,65924
22:59.6,65927
22:59.7,65919
22:59.7,65900
22:59.7,65900
22:59.7,65912
22:59.7,65900
22:59.7,65894
22:59.7,65879
22:59.7,65879
22:59.7,65863
22:59.7,65850
22:59.7,65848
22:59.7,65831
22:59.7,65831
22:59.7,65834
22:59.7,65840
22:59.7,65800
22:59.7,65789
22:59.7,65789
22:59.7,65779
22:59.7,65754
22:59.7,65741
22:59.7,65743
22:59.7,65743
22:59.7,65731
22:59.7,65718
22:59.7,65707
22:59.7,65707
22:59.7,65692
22:59.7,65678
22:59.7,65679
22:59.7,65660
22:59.7,65660
22:59.7,65647
22:59.7,65637
22:59.7,65624
22:59.7,65612
22:59.7,65612
22:59.7,65613
22:59.7,65583
22:59.7,65560
22:59.7,65567
22:59.7,65567
22:59.7,65562
22:59.7,65555
22:59.7,65546
22:59.7,65533
22:59.7,65533
22:59.7,65511
22:59.7,65526
22:59.7,65517
22:59.8,65490
22:59.8,65490
22:59.8,65500
22:59.8,65492
22:59.8,65499
22:59.8,65465
22:59.8,65465
22:59.8,65483
22:59.8,65483
22:59.8,65491
22:59.8,65466
22:59.8,65466
22:59.8,65465
22:59.8,65464
22:59.8,65457
22:59.8,65456
22:59.8,65456
22:59.8,65436
22:59.8,65450
22:59.8,65454
22:59.8,65464
22:59.8,65464
22:59.8,65449
22:59.8,65443
22:59.8,65458
22:59.8,65458
22:59.8,65463
22:59.8,65448
22:59.8,65451
22:59.8,65448
22:59.8,65448
22:59.8,65454
22:59.8,65452
22:59.8,65444
22:59.8,65451
22:59.8,65451
22:59.8,65464
22:59.8,65454
22:59.8,65463
22:59.8,65461
22:59.8,65461
22:59.8,65456
22:59.8,65464
22:59.8,65476
22:59.8,65471
22:59.8,65471
22:59.8,65479
22:59.8,65476
22:59.8,65489
22:59.8,65474
22:59.9,65474
22:59.9,65484
22:59.9,65483
22:59.9,65494
22:59.9,65494
22:59.9,65494
22:59.9,65503
22:59.9,65515
22:59.9,65513
22:59.9,65522
22:59.9,65522
22:59.9,65510
22:59.9,65514
22:59.9,65526
22:59.9,65522
22:59.9,65522
22:59.9,65539
22:59.9,65533
22:59.9,65529
22:59.9,65529
22:59.9,65544
22:59.9,65553
22:59.9,65552
22:59.9,65558
22:59.9,65558
22:59.9,65563
22:59.9,65571
22:59.9,65568
22:59.9,65584
22:59.9,65584
22:59.9,65580
22:59.9,65589
22:59.9,65603
22:59.9,65589
22:59.9,65589
22:59.9,65595
22:59.9,65606
22:59.9,65601
22:59.9,65613
22:59.9,65613
22:59.9,65626
22:59.9,65632
22:59.9,65638
22:59.9,65621
22:59.9,65621
22:59.9,65628
22:59.9,65625
22:59.9,65632
22:59.9,65616
22:59.9,65616
23:00.0,65640
23:00.0,65651
23:00.0,65642
23:00.0,65636
23:00.0,65636
23:00.0,65653
23:00.0,65643
23:00.0,65655
23:00.0,65649
23:00.0,65649
23:00.0,65663
23:00.0,65662
23:00.0,65678
23:00.0,65680
23:00.0,65680
23:00.0,65677
23:00.0,65674
23:00.0,65671
23:00.0,65671
23:00.0,65681
23:00.0,65674
23:00.0,65668
23:00.0,65694
23:00.0,65694
23:00.0,65679
23:00.0,65678
23:00.0,65684
23:00.0,65676
23:00.0,65676
23:00.0,65701
23:00.0,65699
23:00.0,65701
23:00.0,65693
23:00.0,65693
23:00.0,65684
23:00.0,65701
23:00.0,65705
23:00.0,65694
23:00.0,65694
23:00.0,65713
23:00.0,65710
23:00.0,65719
23:00.0,65695
23:00.0,65695
23:00.0,65728
23:00.0,65720
23:00.0,65723
23:00.0,65716
23:00.0,65716
23:00.0,65728
23:00.1,65736
23:00.1,65730
23:00.1,65738
23:00.1,65738
23:00.1,65736
23:00.1,65734
23:00.1,65745
23:00.1,65741
23:00.1,65741
23:00.1,65749
23:00.1,65745
23:00.1,65750
23:00.1,65750
23:00.1,65751
23:00.1,65736
23:00.1,65760
23:00.1,65747
23:00.1,65747
23:00.1,65767
23:00.1,65758
23:00.1,65749
23:00.1,65754
23:00.1,65754
23:00.1,65759
23:00.1,65758
23:00.1,65770
23:00.1,65780
23:00.1,65780
23:00.1,65759
23:00.1,65771
23:00.1,65762
23:00.1,65773
23:00.1,65773
23:00.1,65788
23:00.1,65782
23:00.1,65781
23:00.1,65772
23:00.1,65772
23:00.1,65769
23:00.1,65811
23:00.1,65773
23:00.1,65779
23:00.1,65779
23:00.1,65800
23:00.1,65798
23:00.1,65804
23:00.1,65808
23:00.1,65808
23:00.1,65817
23:00.1,65807
23:00.2,65807
23:00.2,65840
23:00.2,65840
23:00.2,65807
23:00.2,65818
23:00.2,65813
23:00.2,65821
23:00.2,65821
23:00.2,65828
23:00.2,65819
23:00.2,65834
23:00.2,65834
23:00.2,65839
23:00.2,65823
23:00.2,65824
23:00.2,65827
23:00.2,65827
23:00.2,65829
23:00.2,65831
23:00.2,65828
23:00.2,65828
23:00.2,65828
23:00.2,65831
23:00.2,65835
23:00.2,65836
23:00.2,65836
23:00.2,65836
23:00.2,65834
23:00.2,65829
23:00.2,65843
23:00.2,65844
23:00.2,65844
23:00.2,65838
23:00.2,65841
23:00.2,65843
23:00.2,65853
23:00.2,65853
23:00.2,65861
23:00.2,65855
23:00.2,65852
23:00.2,65836
23:00.2,65836
23:00.2,65862
23:00.2,65854
23:00.2,65856
23:00.2,65853
23:00.2,65853
23:00.2,65865
23:00.2,65866
23:00.2,65879
23:00.3,65860
23:00.3,65860
23:00.3,65860
23:00.3,65872
23:00.3,65881
23:00.3,65871
23:00.3,65871
23:00.3,65872
23:00.3,65876
23:00.3,65852
23:00.3,65852
23:00.3,65871
23:00.3,65866
23:00.3,65864
23:00.3,65846
23:00.3,65846
23:00.3,65854
23:00.3,65833
23:00.3,65840
23:00.3,65820
23:00.3,65820
23:00.3,65810
23:00.3,65801
23:00.3,65797
23:00.3,65782
23:00.3,65782
23:00.3,65780
23:00.3,65764
23:00.3,65754
23:00.3,65738
23:00.3,65738
23:00.3,65740
23:00.3,65718
23:00.3,65713
23:00.3,65697
23:00.3,65697
23:00.3,65685
23:00.3,65683
23:00.3,65663
23:00.3,65661
23:00.3,65661
23:00.3,65653
23:00.3,65649
23:00.3,65638
23:00.3,65629
23:00.3,65629
23:00.3,65626
23:00.3,65605
23:00.3,65604
23:00.4,65599
23:00.4,65599
23:00.4,65583
23:00.4,65577
23:00.4,65578
23:00.4,65578
23:00.4,65580
23:00.4,65554
23:00.4,65554
23:00.4,65532
23:00.4,65532
23:00.4,65550
23:00.4,65546
23:00.4,65547
23:00.4,65535
23:00.4,65535
23:00.4,65524
23:00.4,65509
23:00.4,65513
23:00.4,65509
23:00.4,65509
23:00.4,65510
23:00.4,65512
23:00.4,65503
23:00.4,65507
23:00.4,65507
23:00.4,65499
23:00.4,65509
23:00.4,65499
23:00.4,65497
23:00.4,65497
23:00.4,65505
23:00.4,65502
23:00.4,65504
23:00.4,65493
23:00.4,65493
23:00.4,65500
23:00.4,65502
23:00.4,65506
23:00.4,65505
23:00.4,65505
23:00.4,65507
23:00.4,65497
23:00.4,65505
23:00.4,65508
23:00.4,65508
23:00.4,65512
23:00.4,65510
23:00.4,65508
23:00.4,65501
23:00.4,65501
23:00.5,65504
23:00.5,65510
23:00.5,65516
23:00.5,65516
23:00.5,65527
23:00.5,65519
23:00.5,65509
23:00.5,65521
23:00.5,65521
23:00.5,65526
23:00.5,65545
23:00.5,65534
23:00.5,65525
23:00.5,65525
23:00.5,65539
23:00.5,65542
23:00.5,65544
23:00.5,65525
23:00.5,65525
23:00.5,65528
23:00.5,65538
23:00.5,65539
23:00.5,65533
23:00.5,65533
23:00.5,65551
23:00.5,65550
23:00.5,65561
23:00.5,65542
23:00.5,65542
23:00.5,65563
23:00.5,65568
23:00.5,65571
23:00.5,65571
23:00.5,65571
23:00.5,65584
23:00.5,65578
23:00.5,65586
23:00.5,65591
23:00.5,65591
23:00.5,65590
23:00.5,65598
23:00.5,65591
23:00.5,65594
23:00.5,65594
23:00.5,65594
23:00.5,65607
23:00.5,65606
23:00.5,65606
23:00.5,65618
23:00.5,65613
23:00.6,65616
23:00.6,65613
23:00.6,65613
23:00.6,65622
23:00.6,65621
23:00.6,65612
23:00.6,65627
23:00.6,65627
23:00.6,65624
23:00.6,65619
23:00.6,65616
23:00.6,65615
23:00.6,65615
23:00.6,65597
23:00.6,65609
23:00.6,65613
23:00.6,65609
23:00.6,65609
23:00.6,65607
23:00.6,65600
23:00.6,65596
23:00.6,65590
23:00.6,65590
23:00.6,65590
23:00.6,65594
23:00.6,65591
23:00.6,65590
23:00.6,65590
23:00.6,65588
23:00.6,65589
23:00.6,65597
23:00.6,65581
23:00.6,65581
23:00.6,65579
23:00.6,65575
23:00.6,65571
23:00.6,65573
23:00.6,65573
23:00.6,65569
23:00.6,65587
23:00.6,65570
23:00.6,65568
23:00.6,65568
23:00.6,65567
23:00.6,65568
23:00.6,65561
23:00.6,65561
23:00.6,65556
23:00.6,65561
23:00.6,65550
23:00.7,65557
23:00.7,65557
23:00.7,65555
23:00.7,65565
23:00.7,65555
23:00.7,65550
23:00.7,65550
23:00.7,65553
23:00.7,65561
23:00.7,65562
23:00.7,65558
23:00.7,65558
23:00.7,65552
23:00.7,65554
23:00.7,65550
23:00.7,65553
23:00.7,65553
23:00.7,65540
23:00.7,65554
23:00.7,65552
23:00.7,65541
23:00.7,65541
23:00.7,65559
23:00.7,65565
23:00.7,65567
23:00.7,65543
23:00.7,65543
23:00.7,65556
23:00.7,65568
23:00.7,65567
23:00.7,65558
23:00.7,65558
23:00.7,65567
23:00.7,65569
23:00.7,65571
23:00.7,65576
23:00.7,65576
23:00.7,65572
23:00.7,65579
23:00.7,65580
23:00.7,65580
23:00.7,65576
23:00.7,65582
23:00.7,65584
23:00.7,65595
23:00.7,65595
23:00.7,65604
23:00.7,65594
23:00.7,65588
23:00.7,65594
23:00.8,65594
23:00.8,65611
23:00.8,65608
23:00.8,65611
23:00.8,65608
23:00.8,65608
23:00.8,65617
23:00.8,65613
23:00.8,65623
23:00.8,65621
23:00.8,65621
23:00.8,65628
23:00.8,65633
23:00.8,65643
23:00.8,65634
23:00.8,65634
23:00.8,65643
23:00.8,65644
23:00.8,65662
23:00.8,65646
23:00.8,65646
23:00.8,65650
23:00.8,65661
23:00.8,65657
23:00.8,65659
23:00.8,65659
23:00.8,65658
23:00.8,65669
23:00.8,65665
23:00.8,65680
23:00.8,65680
23:00.8,65675
23:00.8,65699
23:00.8,65694
23:00.8,65706
23:00.8,65706
23:00.8,65697
23:00.8,65715
23:00.8,65715
23:00.8,65715
23:00.8,65725
23:00.8,65721
23:00.8,65724
23:00.8,65718
23:00.8,65718
23:00.8,65737
23:00.8,65740
23:00.8,65744
23:00.8,65742
23:00.8,65742
23:00.9,65747
23:00.9,65763
23:00.9,65766
23:00.9,65761
23:00.9,65761
23:00.9,65766
23:00.9,65784
23:00.9,65779
23:00.9,65779
23:00.9,65779
23:00.9,65768
23:00.9,65771
23:00.9,65769
23:00.9,65754
23:00.9,65754
23:00.9,65750
23:00.9,65745
23:00.9,65742
23:00.9,65714
23:00.9,65714
23:00.9,65715
23:00.9,65700
23:00.9,65700
23:00.9,65695
23:00.9,65695
23:00.9,65689
23:00.9,65679
23:00.9,65661
23:00.9,65652
23:00.9,65652
23:00.9,65644
23:00.9,65633
23:00.9,65629
23:00.9,65630
23:00.9,65630
23:00.9,65615
23:00.9,65594
23:00.9,65584
23:00.9,65584
23:00.9,65587
23:00.9,65564
23:00.9,65554
23:00.9,65540
23:00.9,65540
23:00.9,65530
23:00.9,65518
23:00.9,65505
23:00.9,65494
23:00.9,65494
23:00.9,65489
23:01.0,65465
23:01.0,65456
23:01.0,65460
23:01.0,65460
23:01.0,65448
23:01.0,65428
23:01.0,65424
23:01.0,65420
23:01.0,65420
23:01.0,65414
23:01.0,65402
23:01.0,65393
23:01.0,65393
23:01.0,65393
23:01.0,65385
23:01.0,65375
23:01.0,65371
23:01.0,65361
23:01.0,65361
23:01.0,65346
23:01.0,65356
23:01.0,65350
23:01.0,65336
23:01.0,65336
23:01.0,65331
23:01.0,65329
23:01.0,65306
23:01.0,65322
23:01.0,65322
23:01.0,65314
23:01.0,65317
23:01.0,65287
23:01.0,65306
23:01.0,65306
23:01.0,65297
23:01.0,65298
23:01.0,65294
23:01.0,65294
23:01.0,65290
23:01.0,65293
23:01.0,65284
23:01.0,65280
23:01.0,65280
23:01.0,65295
23:01.0,65281
23:01.0,65289
23:01.0,65285
23:01.0,65285
23:01.0,65279
23:01.0,65280
23:01.1,65290
23:01.1,65276
23:01.1,65276
23:01.1,65273
23:01.1,65275
23:01.1,65279
23:01.1,65277
23:01.1,65277
23:01.1,65286
23:01.1,65280
23:01.1,65287
23:01.1,65274
23:01.1,65274
23:01.1,65293
23:01.1,65293
23:01.1,65283
23:01.1,65299
23:01.1,65299
23:01.1,65295
23:01.1,65293
23:01.1,65296
23:01.1,65300
23:01.1,65300
23:01.1,65303
23:01.1,65306
23:01.1,65313
23:01.1,65313
23:01.1,65313
23:01.1,65303
23:01.1,65313
23:01.1,65318
23:01.1,65318
23:01.1,65328
23:01.1,65315
23:01.1,65324
23:01.1,65329
23:01.1,65329
23:01.1,65326
23:01.1,65320
23:01.1,65315
23:01.1,65329
23:01.1,65329
23:01.1,65328
23:01.1,65324
23:01.1,65333
23:01.1,65333
23:01.1,65333
23:01.1,65330
23:01.1,65340
23:01.1,65337
23:01.2,65336
23:01.2,65336
23:01.2,65337
23:01.2,65341
23:01.2,65353
23:01.2,65345
23:01.2,65345
23:01.2,65343
23:01.2,65351
23:01.2,65348
23:01.2,65333
23:01.2,65333
23:01.2,65350
23:01.2,65358
23:01.2,65354
23:01.2,65350
23:01.2,65350
23:01.2,65358
23:01.2,65347
23:01.2,65360
23:01.2,65353
23:01.2,65353
23:01.2,65353
23:01.2,65357
23:01.2,65356
23:01.2,65366
23:01.2,65366
23:01.2,65365
23:01.2,65370
23:01.2,65372
23:01.2,65372
23:01.2,65375
23:01.2,65370
23:01.2,65384
23:01.2,65371
23:01.2,65371
23:01.2,65385
23:01.2,65377
23:01.2,65393
23:01.2,65384
23:01.2,65384
23:01.2,65386
23:01.2,65392
23:01.2,65400
23:01.2,65409
23:01.2,65409
23:01.2,65390
23:01.2,65396
23:01.2,65397
23:01.2,65386
23:01.3,65386
23:01.3,65403
23:01.3,65406
23:01.3,65408
23:01.3,65395
23:01.3,65395
23:01.3,65427
23:01.3,65419
23:01.3,65416
23:01.3,65410
23:01.3,65410
23:01.3,65429
23:01.3,65427
23:01.3,65428
23:01.3,65429
23:01.3,65429
23:01.3,65429
23:01.3,65442
23:01.3,65441
23:01.3,65446
23:01.3,65446
23:01.3,65444
23:01.3,65444
23:01.3,65452
23:01.3,65453
23:01.3,65453
23:01.3,65462
23:01.3,65459
23:01.3,65459
23:01.3,65459
23:01.3,65480
23:01.3,65461
23:01.3,65480
23:01.3,65472
23:01.3,65472
23:01.3,65491
23:01.3,65495
23:01.3,65494
23:01.3,65490
23:01.3,65490
23:01.3,65497
23:01.3,65505
23:01.3,65512
23:01.3,65517
23:01.3,65517
23:01.3,65523
23:01.3,65524
23:01.3,65528
23:01.3,65526
23:01.3,65526
23:01.4,65536
23:01.4,65540
23:01.4,65547
23:01.4,65545
23:01.4,65545
23:01.4,65543
23:01.4,65555
23:01.4,65555
23:01.4,65562
23:01.4,65562
23:01.4,65554
23:01.4,65560
23:01.4,65576
23:01.4,65579
23:01.4,65579
23:01.4,65570
23:01.4,65591
23:01.4,65592
23:01.4,65594
23:01.4,65594
23:01.4,65598
23:01.4,65598
23:01.4,65614
23:01.4,65614
23:01.4,65615
23:01.4,65606
23:01.4,65611
23:01.4,65624
23:01.4,65624
23:01.4,65630
23:01.4,65636
23:01.4,65616
23:01.4,65637
23:01.4,65637
23:01.4,65637
23:01.4,65651
23:01.4,65644
23:01.4,65636
23:01.4,65636
23:01.4,65650
23:01.4,65630
23:01.4,65640
23:01.4,65644
23:01.4,65644
23:01.4,65645
23:01.4,65643
23:01.4,65642
23:01.4,65635
23:01.4,65635
23:01.4,65633
23:01.5,65651
23:01.5,65656
23:01.5,65632
23:01.5,65632
23:01.5,65640
23:01.5,65644
23:01.5,65631
23:01.5,65626
23:01.5,65626
23:01.5,65627
23:01.5,65612
23:01.5,65596
23:01.5,65598
23:01.5,65598
23:01.5,65578
23:01.5,65567
23:01.5,65567
23:01.5,65547
23:01.5,65547
23:01.5,65521
23:01.5,65510
23:01.5,65492
23:01.5,65492
23:01.5,65477
23:01.5,65450
23:01.5,65434
23:01.5,65417
23:01.5,65417
23:01.5,65414
23:01.5,65372
23:01.5,65360
23:01.5,65351
23:01.5,65351
23:01.5,65334
23:01.5,65317
23:01.5,65300
23:01.5,65283
23:01.5,65283
23:01.5,65258
23:01.5,65257
23:01.5,65232
23:01.5,65213
23:01.5,65213
23:01.5,65205
23:01.5,65182
23:01.5,65174
23:01.5,65165
23:01.5,65165
23:01.5,65152
23:01.5,65139
23:01.6,65126
23:01.6,65116
23:01.6,65116
23:01.6,65105
23:01.6,65089
23:01.6,65093
23:01.6,65062
23:01.6,65062
23:01.6,65066
23:01.6,65062
23:01.6,65037
23:01.6,65047
23:01.6,65047
23:01.6,65031
23:01.6,65043
23:01.6,65025
23:01.6,65025
23:01.6,65018
23:01.6,65008
23:01.6,65003
23:01.6,65008
23:01.6,65008
23:01.6,64987
23:01.6,64994
23:01.6,64977
23:01.6,64980
23:01.6,64980
23:01.6,64980
23:01.6,64984
23:01.6,64980
23:01.6,64969
23:01.6,64969
23:01.6,64978
23:01.6,64972
23:01.6,64969
23:01.6,64969
23:01.6,64969
23:01.6,64980
23:01.6,64975
23:01.6,64966
23:01.6,64958
23:01.6,64958
23:01.6,64975
23:01.6,64979
23:01.6,64976
23:01.6,64972
23:01.6,64972
23:01.6,64974
23:01.6,64982
23:01.6,64993
23:01.7,64963
23:01.7,64963
23:01.7,64996
23:01.7,64994
23:01.7,65000
23:01.7,64991
23:01.7,64991
23:01.7,64998
23:01.7,65011
23:01.7,65000
23:01.7,65014
23:01.7,65014
23:01.7,65013
23:01.7,65002
23:01.7,65022
23:01.7,65022
23:01.7,65035
23:01.7,65023
23:01.7,65031
23:01.7,65045
23:01.7,65045
23:01.7,65040
23:01.7,65046
23:01.7,65053
23:01.7,65057
23:01.7,65057
23:01.7,65062
23:01.7,65069
23:01.7,65063
23:01.7,65064
23:01.7,65064
23:01.7,65081
23:01.7,65085
23:01.7,65085
23:01.7,65101
23:01.7,65101
23:01.7,65112
23:01.7,65112
23:01.7,65118
23:01.7,65116
23:01.7,65116
23:01.7,65132
23:01.7,65127
23:01.7,65143
23:01.7,65146
23:01.7,65146
23:01.7,65137
23:01.7,65143
23:01.7,65154
23:01.7,65163
23:01.8,65163
23:01.8,65167
23:01.8,65155
23:01.8,65185
23:01.8,65179
23:01.8,65179
23:01.8,65160
23:01.8,65190
23:01.8,65183
23:01.8,65183
23:01.8,65197
23:01.8,65198
23:01.8,65204
23:01.8,65204
23:01.8,65204
23:01.8,65210
23:01.8,65208
23:01.8,65219
23:01.8,65211
23:01.8,65211
23:01.8,65204
23:01.8,65207
23:01.8,65215
23:01.8,65220
23:01.8,65220
23:01.8,65219
23:01.8,65220
23:01.8,65221
23:01.8,65226
23:01.8,65226
23:01.8,65224
23:01.8,65243
23:01.8,65230
23:01.8,65235
23:01.8,65235
23:01.8,65239
23:01.8,65237
23:01.8,65244
23:01.8,65239
23:01.8,65239
23:01.8,65254
23:01.8,65247
23:01.8,65244
23:01.8,65251
23:01.8,65251
23:01.8,65248
23:01.8,65261
23:01.8,65248
23:01.8,65270
23:01.8,65270
23:01.9,65259
23:01.9,65273
23:01.9,65263
23:01.9,65287
23:01.9,65287
23:01.9,65275
23:01.9,65274
23:01.9,65276
23:01.9,65276
23:01.9,65295
23:01.9,65296
23:01.9,65289
23:01.9,65294
23:01.9,65294
23:01.9,65296
23:01.9,65292
23:01.9,65297
23:01.9,65297
23:01.9,65297
23:01.9,65302
23:01.9,65299
23:01.9,65300
23:01.9,65299
23:01.9,65299
23:01.9,65313
23:01.9,65301
23:01.9,65306
23:01.9,65315
23:01.9,65315
23:01.9,65305
23:01.9,65330
23:01.9,65322
23:01.9,65308
23:01.9,65308
23:01.9,65327
23:01.9,65307
23:01.9,65326
23:01.9,65319
23:01.9,65319
23:01.9,65335
23:01.9,65341
23:01.9,65332
23:01.9,65337
23:01.9,65337
23:01.9,65345
23:01.9,65351
23:01.9,65345
23:01.9,65351
23:01.9,65351
23:01.9,65345
23:02.0,65352
23:02.0,65351
23:02.0,65351
23:02.0,65350
23:02.0,65339
23:02.0,65347
23:02.0,65343
23:02.0,65343
23:02.0,65345
23:02.0,65352
23:02.0,65350
23:02.0,65351
23:02.0,65351
23:02.0,65346
23:02.0,65344
23:02.0,65341
23:02.0,65334
23:02.0,65334
23:02.0,65340
23:02.0,65332
23:02.0,65336
23:02.0,65314
23:02.0,65314
23:02.0,65317
23:02.0,65325
23:02.0,65315
23:02.0,65311
23:02.0,65311
23:02.0,65305
23:02.0,65307
23:02.0,65298
23:02.0,65297
23:02.0,65297
23:02.0,65298
23:02.0,65294
23:02.0,65293
23:02.0,65293
23:02.0,65293
23:02.0,65279
23:02.0,65298
23:02.0,65286
23:02.0,65276
23:02.0,65276
23:02.0,65276
23:02.0,65266
23:02.0,65263
23:02.0,65269
23:02.0,65269
23:02.0,65242
23:02.0,65237
23:02.1,65233
23:02.1,65233
23:02.1,65241
23:02.1,65232
23:02.1,65221
23:02.1,65216
23:02.1,65216
23:02.1,65205
23:02.1,65190
23:02.1,65178
23:02.1,65155
23:02.1,65155
23:02.1,65142
23:02.1,65151
23:02.1,65125
23:02.1,65136
23:02.1,65136
23:02.1,65119
23:02.1,65083
23:02.1,65080
23:02.1,65075
23:02.1,65075
23:02.1,65056
23:02.1,65051
23:02.1,65027
23:02.1,65012
23:02.1,65012
23:02.1,65015
23:02.1,64992
23:02.1,64984
23:02.1,64972
23:02.1,64972
23:02.1,64964
23:02.1,64951
23:02.1,64946
23:02.1,64930
23:02.1,64930
23:02.1,64921
23:02.1,64923
23:02.1,64893
23:02.1,64896
23:02.1,64896
23:02.1,64881
23:02.1,64883
23:02.1,64866
23:02.1,64866
23:02.1,64861
23:02.1,64839
23:02.1,64842
23:02.1,64835
23:02.2,64835
23:02.2,64845
23:02.2,64816
23:02.2,64827
23:02.2,64825
23:02.2,64825
23:02.2,64829
23:02.2,64817
23:02.2,64820
23:02.2,64807
23:02.2,64807
23:02.2,64809
23:02.2,64793
23:02.2,64799
23:02.2,64801
23:02.2,64801
23:02.2,64804
23:02.2,64807
23:02.2,64821
23:02.2,64795
23:02.2,64795
23:02.2,64803
23:02.2,64798
23:02.2,64816
23:02.2,64796
23:02.2,64796
23:02.2,64800
23:02.2,64793
23:02.2,64797
23:02.2,64797
23:02.2,64797
23:02.2,64795
23:02.2,64804
23:02.2,64798
23:02.2,64814
23:02.2,64814
23:02.2,64824
23:02.2,64802
23:02.2,64805
23:02.2,64809
23:02.2,64809
23:02.2,64803
23:02.2,64815
23:02.2,64812
23:02.2,64812
23:02.2,64820
23:02.2,64812
23:02.2,64819
23:02.2,64827
23:02.2,64827
23:02.3,64828
23:02.3,64823
23:02.3,64819
23:02.3,64824
23:02.3,64824
23:02.3,64833
23:02.3,64847
23:02.3,64837
23:02.3,64834
23:02.3,64834
23:02.3,64843
23:02.3,64852
23:02.3,64851
23:02.3,64849
23:02.3,64849
23:02.3,64857
23:02.3,64851
23:02.3,64870
23:02.3,64860
23:02.3,64860
23:02.3,64864
23:02.3,64885
23:02.3,64877
23:02.3,64869
23:02.3,64869
23:02.3,64886
23:02.3,64884
23:02.3,64883
23:02.3,64894
23:02.3,64894
23:02.3,64896
23:02.3,64901
23:02.3,64903
23:02.3,64913
23:02.3,64913
23:02.3,64915
23:02.3,64916
23:02.3,64928
23:02.3,64928
23:02.3,64929
23:02.3,64933
23:02.3,64933
23:02.3,64929
23:02.3,64929
23:02.3,64934
23:02.3,64932
23:02.3,64934
23:02.3,64948
23:02.3,64948
23:02.3,64940
23:02.4,64939
23:02.4,64940
23:02.4,64936
23:02.4,64936
23:02.4,64937
23:02.4,64937
23:02.4,64940
23:02.4,64932
23:02.4,64932
23:02.4,64933
23:02.4,64923
23:02.4,64938
23:02.4,64925
23:02.4,64925
23:02.4,64935
23:02.4,64913
23:02.4,64929
23:02.4,64909
23:02.4,64909
23:02.4,64926
23:02.4,64928
23:02.4,64916
23:02.4,64897
23:02.4,64897
23:02.4,64908
23:02.4,64915
23:02.4,64904
23:02.4,64913
23:02.4,64913
23:02.4,64900
23:02.4,64898
23:02.4,64896
23:02.4,64906
23:02.4,64906
23:02.4,64904
23:02.4,64891
23:02.4,64895
23:02.4,64895
23:02.4,64896
23:02.4,64904
23:02.4,64906
23:02.4,64891
23:02.4,64891
23:02.4,64907
23:02.4,64896
23:02.4,64905
23:02.4,64898
23:02.4,64898
23:02.4,64903
23:02.4,64907
23:02.5,64904
23:02.5,64910
23:02.5,64910
23:02.5,64908
23:02.5,64903
23:02.5,64897
23:02.5,64901
23:02.5,64901
23:02.5,64906
23:02.5,64908
23:02.5,64913
23:02.5,64903
23:02.5,64903
23:02.5,64917
23:02.5,64914
23:02.5,64922
23:02.5,64908
23:02.5,64908
23:02.5,64927
23:02.5,64919
23:02.5,64928
23:02.5,64935
23:02.5,64935
23:02.5,64934
23:02.5,64939
23:02.5,64936
23:02.5,64960
23:02.5,64960
23:02.5,64947
23:02.5,64951
23:02.5,64957
23:02.5,64957
23:02.5,64970
23:02.5,64958
23:02.5,64948
23:02.5,64971
23:02.5,64971
23:02.5,64977
23:02.5,64977
23:02.5,64983
23:02.5,64985
23:02.5,64985
23:02.5,65000
23:02.5,64988
23:02.5,64989
23:02.5,64986
23:02.5,64986
23:02.5,65014
23:02.5,65007
23:02.6,65011
23:02.6,65013
23:02.6,65013
23:02.6,65019
23:02.6,65039
23:02.6,65037
23:02.6,65038
23:02.6,65038
23:02.6,65047
23:02.6,65044
23:02.6,65054
23:02.6,65064
23:02.6,65064
23:02.6,65069
23:02.6,65072
23:02.6,65080
23:02.6,65073
23:02.6,65073
23:02.6,65092
23:02.6,65098
23:02.6,65097
23:02.6,65108
23:02.6,65108
23:02.6,65123
23:02.6,65114
23:02.6,65122
23:02.6,65135
23:02.6,65135
23:02.6,65138
23:02.6,65145
23:02.6,65142
23:02.6,65142
23:02.6,65143
23:02.6,65161
23:02.6,65169
23:02.6,65180
23:02.6,65180
23:02.6,65182
23:02.6,65185
23:02.6,65197
23:02.6,65195
23:02.6,65195
23:02.6,65199
23:02.6,65218
23:02.6,65232
23:02.6,65230
23:02.6,65230
23:02.6,65248
23:02.6,65242
23:02.6,65250
23:02.6,65254
23:02.7,65254
23:02.7,65276
23:02.7,65278
23:02.7,65286
23:02.7,65290
23:02.7,65290
23:02.7,65311
23:02.7,65300
23:02.7,65305
23:02.7,65296
23:02.7,65296
23:02.7,65305
23:02.7,65303
23:02.7,65299
23:02.7,65293
23:02.7,65293
23:02.7,65307
23:02.7,65291
23:02.7,65282
23:02.7,65288
23:02.7,65288
23:02.7,65269
23:02.7,65263
23:02.7,65256
23:02.7,65256
23:02.7,65252
23:02.7,65233
23:02.7,65227
23:02.7,65230
23:02.7,65230
23:02.7,65205
23:02.7,65197
23:02.7,65189
23:02.7,65179
23:02.7,65179
23:02.7,65169
23:02.7,65149
23:02.7,65144
23:02.7,65134
23:02.7,65134
23:02.7,65117
23:02.7,65108
23:02.7,65098
23:02.7,65094
23:02.7,65094
23:02.7,65078
23:02.7,65068
23:02.7,65068
23:02.7,65048
23:02.7,65048
23:02.8,65034
23:02.8,65036
23:02.8,65034
23:02.8,65001
23:02.8,65001
23:02.8,65017
23:02.8,64995
23:02.8,64984
23:02.8,64983
23:02.8,64983
23:02.8,64983
23:02.8,64984
23:02.8,64963
23:02.8,64975
23:02.8,64975
23:02.8,64960
23:02.8,64962
23:02.8,64952
23:02.8,64967
23:02.8,64967
23:02.8,64949
23:02.8,64949
23:02.8,64960
23:02.8,64960
23:02.8,64950
23:02.8,64943
23:02.8,64936
23:02.8,64941
23:02.8,64941
23:02.8,64943
23:02.8,64938
23:02.8,64946
23:02.8,64941
23:02.8,64941
23:02.8,64945
23:02.8,64938
23:02.8,64938
23:02.8,64934
23:02.8,64934
23:02.8,64936
23:02.8,64946
23:02.8,64939
23:02.8,64927
23:02.8,64927
23:02.8,64936
23:02.8,64927
23:02.8,64947
23:02.8,64925
23:02.8,64925
23:02.8,64941
23:02.9,64944
23:02.9,64933
23:02.9,64934
23:02.9,64934
23:02.9,64933
23:02.9,64938
23:02.9,64945
23:02.9,64930
23:02.9,64930
23:02.9,64917
23:02.9,64927
23:02.9,64934
23:02.9,64933
23:02.9,64933
23:02.9,64928
23:02.9,64933
23:02.9,64930
23:02.9,64930
23:02.9,64940
23:02.9,64925
23:02.9,64919
23:02.9,64925
23:02.9,64925
23:02.9,64930
23:02.9,64927
23:02.9,64930
23:02.9,64930
23:02.9,64930
23:02.9,64931
23:02.9,64920
23:02.9,64928
23:02.9,64924
23:02.9,64924
23:02.9,64924
23:02.9,64914
23:02.9,64919
23:02.9,64918
23:02.9,64918
23:02.9,64925
23:02.9,64928
23:02.9,64924
23:02.9,64919
23:02.9,64919
23:02.9,64913
23:02.9,64917
23:02.9,64906
23:02.9,64903
23:02.9,64903
23:02.9,64909
23:02.9,64908
23:03.0,64912
23:03.0,64912
23:03.0,64912
23:03.0,64920
23:03.0,64898
23:03.0,64895
23:03.0,64906
23:03.0,64906
23:03.0,64910
23:03.0,64901
23:03.0,64898
23:03.0,64898
23:03.0,64906
23:03.0,64885
23:03.0,64891
23:03.0,64898
23:03.0,64898
23:03.0,64892
23:03.0,64896
23:03.0,64905
23:03.0,64893
23:03.0,64893
23:03.0,64910
23:03.0,64886
23:03.0,64901
23:03.0,64891
23:03.0,64891
23:03.0,64873
23:03.0,64911
23:03.0,64909
23:03.0,64894
23:03.0,64894
23:03.0,64901
23:03.0,64909
23:03.0,64902
23:03.0,64901
23:03.0,64901
23:03.0,64926
23:03.0,64923
23:03.0,64934
23:03.0,64917
23:03.0,64917
23:03.0,64937
23:03.0,64949
23:03.0,64932
23:03.0,64925
23:03.0,64925
23:03.0,64936
23:03.0,64945
23:03.0,64961
23:03.1,64952
23:03.1,64952
23:03.1,64955
23:03.1,64962
23:03.1,64965
23:03.1,64971
23:03.1,64971
23:03.1,64985
23:03.1,64978
23:03.1,64985
23:03.1,64985
23:03.1,64994
23:03.1,65002
23:03.1,64998
23:03.1,65012
23:03.1,65012
23:03.1,65015
23:03.1,65010
23:03.1,65024
23:03.1,65018
23:03.1,65018
23:03.1,65032
23:03.1,65040
23:03.1,65045
23:03.1,65026
23:03.1,65026
23:03.1,65044
23:03.1,65067
23:03.1,65066
23:03.1,65054
23:03.1,65054
23:03.1,65098
23:03.1,65089
23:03.1,65090
23:03.1,65110
23:03.1,65110
23:03.1,65104
23:03.1,65108
23:03.1,65113
23:03.1,65125
23:03.1,65125
23:03.1,65133
23:03.1,65152
23:03.1,65147
23:03.1,65151
23:03.1,65151
23:03.1,65161
23:03.1,65171
23:03.1,65186
23:03.1,65195
23:03.2,65195
23:03.2,65207
23:03.2,65198
23:03.2,65208
23:03.2,65208
23:03.2,65211
23:03.2,65203
23:03.2,65230
23:03.2,65232
23:03.2,65232
23:03.2,65239
23:03.2,65243
23:03.2,65254
23:03.2,65252
23:03.2,65252
23:03.2,65258
23:03.2,65271
23:03.2,65268
23:03.2,65274
23:03.2,65274
23:03.2,65287
23:03.2,65291
23:03.2,65291
23:03.2,65308
23:03.2,65308
23:03.2,65300
23:03.2,65309
23:03.2,65309
23:03.2,65306
23:03.2,65306
23:03.2,65321
23:03.2,65329
23:03.2,65342
23:03.2,65329
23:03.2,65329
23:03.2,65335
23:03.2,65350
23:03.2,65366
23:03.2,65353
23:03.2,65353
23:03.2,65355
23:03.2,65359
23:03.2,65365
23:03.2,65359
23:03.2,65359
23:03.2,65375
23:03.2,65366
23:03.2,65366
23:03.2,65372
23:03.3,65372
23:03.3,65378
23:03.3,65364
23:03.3,65363
23:03.3,65363
23:03.3,65365
23:03.3,65347
23:03.3,65344
23:03.3,65343
23:03.3,65343
23:03.3,65337
23:03.3,65346
23:03.3,65327
23:03.3,65308
23:03.3,65308
23:03.3,65307
23:03.3,65295
23:03.3,65275
23:03.3,65262
23:03.3,65262
23:03.3,65242
23:03.3,65229
23:03.3,65232
23:03.3,65198
23:03.3,65198
23:03.3,65197
23:03.3,65179
23:03.3,65154
23:03.3,65146
23:03.3,65146
23:03.3,65123
23:03.3,65109
23:03.3,65103
23:03.3,65089
23:03.3,65089
23:03.3,65074
23:03.3,65052
23:03.3,65053
23:03.3,65036
23:03.3,65036
23:03.3,65027
23:03.3,65021
23:03.3,64995
23:03.3,65012
23:03.3,65012
23:03.3,64992
23:03.3,64980
23:03.3,64965
23:03.3,64965
23:03.3,64963
23:03.3,64950
23:03.4,64948
23:03.4,64926
23:03.4,64926
23:03.4,64934
23:03.4,64925
23:03.4,64912
23:03.4,64904
23:03.4,64904
23:03.4,64913
23:03.4,64904
23:03.4,64901
23:03.4,64888
23:03.4,64888
23:03.4,64875
23:03.4,64884
23:03.4,64881
23:03.4,64881
23:03.4,64881
23:03.4,64858
23:03.4,64883
23:03.4,64871
23:03.4,64869
23:03.4,64869
23:03.4,64864
23:03.4,64869
23:03.4,64871
23:03.4,64862
23:03.4,64862
23:03.4,64859
23:03.4,64862
23:03.4,64864
23:03.4,64873
23:03.4,64873
23:03.4,64867
23:03.4,64884
23:03.4,64879
23:03.4,64876
23:03.4,64876
23:03.4,64880
23:03.4,64894
23:03.4,64885
23:03.4,64885
23:03.4,64885
23:03.4,64880
23:03.4,64895
23:03.4,64892
23:03.4,64892
23:03.4,64898
23:03.4,64902
23:03.4,64899
23:03.5,64903
23:03.5,64903
23:03.5,64908
23:03.5,64915
23:03.5,64917
23:03.5,64925
23:03.5,64925
23:03.5,64933
23:03.5,64934
23:03.5,64944
23:03.5,64939
23:03.5,64939
23:03.5,64953
23:03.5,64957
23:03.5,64972
23:03.5,64961
23:03.5,64961
23:03.5,64978
23:03.5,64990
23:03.5,64995
23:03.5,64985
23:03.5,64985
23:03.5,65013
23:03.5,65002
23:03.5,65006
23:03.5,65007
23:03.5,65007
23:03.5,65031
23:03.5,65023
23:03.5,65030
23:03.5,65041
23:03.5,65041
23:03.5,65053
23:03.5,65054
23:03.5,65069
23:03.5,65069
23:03.5,65069
23:03.5,65074
23:03.5,65075
23:03.5,65076
23:03.5,65076
23:03.5,65105
23:03.5,65088
23:03.5,65096
23:03.5,65093
23:03.5,65093
23:03.5,65119
23:03.5,65118
23:03.5,65123
23:03.5,65125
23:03.6,65125
23:03.6,65129
23:03.6,65134
23:03.6,65137
23:03.6,65143
23:03.6,65143
23:03.6,65135
23:03.6,65135
23:03.6,65145
23:03.6,65143
23:03.6,65143
23:03.6,65140
23:03.6,65156
23:03.6,65153
23:03.6,65154
23:03.6,65154
23:03.6,65174
23:03.6,65170
23:03.6,65197
23:03.6,65173
23:03.6,65173
23:03.6,65176
23:03.6,65173
23:03.6,65186
23:03.6,65186
23:03.6,65186
23:03.6,65189
23:03.6,65193
23:03.6,65182
23:03.6,65195
23:03.6,65195
23:03.6,65175
23:03.6,65186
23:03.6,65188
23:03.6,65195
23:03.6,65195
23:03.6,65193
23:03.6,65193
23:03.6,65202
23:03.6,65202
23:03.6,65212
23:03.6,65208
23:03.6,65210
23:03.6,65215
23:03.6,65215
23:03.6,65226
23:03.6,65218
23:03.6,65211
23:03.6,65226
23:03.6,65226
23:03.7,65221
23:03.7,65230
23:03.7,65228
23:03.7,65237
23:03.7,65237
23:03.7,65242
23:03.7,65250
23:03.7,65247
23:03.7,65242
23:03.7,65242
23:03.7,65238
23:03.7,65249
23:03.7,65253
23:03.7,65243
23:03.7,65243
23:03.7,65258
23:03.7,65259
23:03.7,65273
23:03.7,65266
23:03.7,65266
23:03.7,65277
23:03.7,65270
23:03.7,65287
23:03.7,65281
23:03.7,65281
23:03.7,65286
23:03.7,65284
23:03.7,65290
23:03.7,65301
23:03.7,65301
23:03.7,65290
23:03.7,65298
23:03.7,65288
23:03.7,65288
23:03.7,65316
23:03.7,65300
23:03.7,65304
23:03.7,65303
23:03.7,65303
23:03.7,65328
23:03.7,65315
23:03.7,65320
23:03.7,65307
23:03.7,65307
23:03.7,65310
23:03.7,65314
23:03.7,65313
23:03.7,65317
23:03.7,65317
23:03.7,65316
23:03.8,65326
23:03.8,65307
23:03.8,65311
23:03.8,65311
23:03.8,65317
23:03.8,65325
23:03.8,65321
23:03.8,65300
23:03.8,65300
23:03.8,65323
23:03.8,65313
23:03.8,65329
23:03.8,65319
23:03.8,65319
23:03.8,65330
23:03.8,65329
23:03.8,65318
23:03.8,65313
23:03.8,65313
23:03.8,65323
23:03.8,65325
23:03.8,65332
23:03.8,65328
23:03.8,65328
23:03.8,65345
23:03.8,65333
23:03.8,65336
23:03.8,65340
23:03.8,65340
23:03.8,65334
23:03.8,65333
23:03.8,65335
23:03.8,65335
23:03.8,65345
23:03.8,65342
23:03.8,65346
23:03.8,65341
23:03.8,65341
23:03.8,65343
23:03.8,65344
23:03.8,65339
23:03.8,65334
23:03.8,65334
23:03.8,65323
23:03.8,65327
23:03.8,65319
23:03.8,65311
23:03.8,65311
23:03.8,65290
23:03.8,65287
23:03.9,65283
23:03.9,65268
23:03.9,65268
23:03.9,65248
23:03.9,65253
23:03.9,65241
23:03.9,65223
23:03.9,65223
23:03.9,65219
23:03.9,65205
23:03.9,65185
23:03.9,65179
23:03.9,65179
23:03.9,65176
23:03.9,65177
23:03.9,65152
23:03.9,65144
23:03.9,65144
23:03.9,65132
23:03.9,65100
23:03.9,65112
23:03.9,65104
23:03.9,65104
23:03.9,65081
23:03.9,65080
23:03.9,65056
23:03.9,65056
23:03.9,65051
23:03.9,65028
23:03.9,65026
23:03.9,65010
23:03.9,65010
23:03.9,65003
23:03.9,64977
23:03.9,64967
23:03.9,64961
23:03.9,64961
23:03.9,64960
23:03.9,64958
23:03.9,64938
23:03.9,64933
23:03.9,64933
23:03.9,64935
23:03.9,64934
23:03.9,64932
23:03.9,64910
23:03.9,64910
23:03.9,64911
23:03.9,64906
23:03.9,64906
23:04.0,64891
23:04.0,64891
23:04.0,64910
23:04.0,64898
23:04.0,64898
23:04.0,64892
23:04.0,64892
23:04.0,64902
23:04.0,64899
23:04.0,64904
23:04.0,64900
23:04.0,64900
23:04.0,64888
23:04.0,64906
23:04.0,64909
23:04.0,64912
23:04.0,64912
23:04.0,64908
23:04.0,64913
23:04.0,64922
23:04.0,64922
23:04.0,64928
23:04.0,64920
23:04.0,64933
23:04.0,64928
23:04.0,64928
23:04.0,64935
23:04.0,64927
23:04.0,64941
23:04.0,64942
23:04.0,64942
23:04.0,64949
23:04.0,64952
23:04.0,64957
23:04.0,64964
23:04.0,64964
23:04.0,64974
23:04.0,64969
23:04.0,64973
23:04.0,64962
23:04.0,64962
23:04.0,64986
23:04.0,64987
23:04.0,65015
23:04.0,64996
23:04.0,64996
23:04.0,65004
23:04.0,65003
23:04.0,65011
23:04.0,65017
23:04.1,65017
23:04.1,65029
23:04.1,65028
23:04.1,65039
23:04.1,65050
23:04.1,65050
23:04.1,65052
23:04.1,65052
23:04.1,65064
23:04.1,65070
23:04.1,65070
23:04.1,65076
23:04.1,65062
23:04.1,65084
23:04.1,65092
23:04.1,65092
23:04.1,65086
23:04.1,65083
23:04.1,65088
23:04.1,65088
23:04.1,65097
23:04.1,65101
23:04.1,65101
23:04.1,65112
23:04.1,65112
23:04.1,65126
23:04.1,65110
23:04.1,65120
23:04.1,65115
23:04.1,65115
23:04.1,65107
23:04.1,65121
23:04.1,65127
23:04.1,65123
23:04.1,65123
23:04.1,65130
23:04.1,65148
23:04.1,65122
23:04.1,65142
23:04.1,65142
23:04.1,65136
23:04.1,65136
23:04.1,65131
23:04.1,65130
23:04.1,65130
23:04.1,65127
23:04.1,65134
23:04.1,65133
23:04.1,65131
23:04.1,65131
23:04.2,65137
23:04.2,65141
23:04.2,65143
23:04.2,65128
23:04.2,65128
23:04.2,65130
23:04.2,65127
23:04.2,65137
23:04.2,65140
23:04.2,65140
23:04.2,65135
23:04.2,65142
23:04.2,65127
23:04.2,65127
23:04.2,65135
23:04.2,65123
23:04.2,65136
23:04.2,65125
23:04.2,65125
23:04.2,65138
23:04.2,65129
23:04.2,65123
23:04.2,65142
23:04.2,65142
23:04.2,65117
23:04.2,65124
23:04.2,65124
23:04.2,65118
23:04.2,65118
23:04.2,65119
23:04.2,65123
23:04.2,65118
23:04.2,65125
23:04.2,65125
23:04.2,65119
23:04.2,65115
23:04.2,65116
23:04.2,65115
23:04.2,65115
23:04.2,65116
23:04.2,65104
23:04.2,65111
23:04.2,65110
23:04.2,65110
23:04.2,65119
23:04.2,65118
23:04.2,65116
23:04.2,65124
23:04.2,65124
23:04.2,65127
23:04.3,65114
23:04.3,65128
23:04.3,65125
23:04.3,65125
23:04.3,65115
23:04.3,65130
23:04.3,65127
23:04.3,65127
23:04.3,65135
23:04.3,65133
23:04.3,65137
23:04.3,65128
23:04.3,65128
23:04.3,65147
23:04.3,65134
23:04.3,65133
23:04.3,65138
23:04.3,65138
23:04.3,65134
23:04.3,65141
23:04.3,65145
23:04.3,65139
23:04.3,65139
23:04.3,65148
23:04.3,65158
23:04.3,65159
